# OpenSignals Text File Format. Version 1
# {"00:07:80:D8:AA:D9": {"position": 0, "device": "bioplux", "device name": "00:07:80:D8:AA:D9", "device connection": "BTH00:07:80:D8:AA:D9", "sampling rate": 1000, "resolution": [12, 12], "firmware version": 514, "comments": "", "keywords": "", "mode": 0, "sync interval": 2, "date": "2024-6-10", "time": "15:27:11.443", "channels": [1, 2], "sensor": ["EDA", "ECG"], "label": ["CH1", "CH2"], "column": ["nSeq", "DI", "CH1", "CH2"], "special": [{}, {}], "digital IO": [0, 1]}}
# EndOfHeader
0	1	1666	2021	
1	1	1666	1981	
2	1	1666	1958	
3	1	1666	1958	
4	1	1665	1960	
5	1	1665	1982	
6	1	1665	2001	
7	1	1665	2028	
8	1	1665	2030	
9	1	1664	2049	
10	1	1665	2087	
11	1	1664	2093	
12	1	1664	2106	
13	1	1664	2132	
14	1	1664	2143	
15	1	1664	2142	
16	1	1664	2138	
17	1	1664	2131	
18	1	1664	2112	
19	1	1664	2112	
20	1	1664	2101	
21	1	1663	2102	
22	1	1664	2100	
23	1	1663	2084	
24	1	1664	2064	
25	1	1663	2035	
26	1	1663	2016	
27	1	1664	2006	
28	1	1664	1993	
29	1	1663	1992	
30	1	1663	1987	
31	1	1663	1988	
32	1	1664	1992	
33	1	1663	1981	
34	1	1663	1970	
35	1	1663	1961	
36	1	1663	1959	
37	1	1663	1976	
38	1	1663	2002	
39	1	1663	1996	
40	1	1663	1993	
41	1	1663	2003	
42	1	1663	2007	
43	1	1663	2005	
44	1	1663	2008	
45	1	1663	2013	
46	1	1663	2030	
47	1	1663	2039	
48	1	1663	2035	
49	1	1663	2021	
50	1	1663	2012	
51	1	1662	2000	
52	1	1662	1983	
53	1	1662	1983	
54	1	1662	1992	
55	1	1662	2019	
56	1	1662	2027	
57	1	1662	2037	
58	1	1662	2032	
59	1	1662	2025	
60	1	1662	2018	
61	1	1662	2020	
62	1	1662	2026	
63	1	1662	2029	
64	1	1662	2032	
65	1	1662	2037	
66	1	1662	2040	
67	1	1662	2043	
68	1	1662	2042	
69	1	1662	2038	
70	1	1662	2035	
71	1	1661	2038	
72	1	1661	2055	
73	1	1661	2059	
74	1	1662	2068	
75	1	1661	2059	
76	1	1661	2051	
77	1	1661	2063	
78	1	1662	2076	
79	1	1661	2077	
80	1	1661	2068	
81	1	1661	2053	
82	1	1661	2068	
83	1	1661	2090	
84	1	1661	2086	
85	1	1661	2069	
86	1	1661	2043	
87	1	1661	2039	
88	1	1661	2038	
89	1	1661	2040	
90	1	1661	2054	
91	1	1661	2056	
92	1	1661	2057	
93	1	1661	2047	
94	1	1661	2050	
95	1	1661	2048	
96	1	1661	2060	
97	1	1661	2059	
98	1	1660	2062	
99	1	1660	2061	
100	1	1660	2057	
101	1	1661	2056	
102	1	1661	2051	
103	1	1661	2041	
104	1	1660	2024	
105	1	1660	2017	
106	1	1660	2002	
107	1	1660	2004	
108	1	1660	2002	
109	1	1660	2001	
110	1	1660	2014	
111	1	1660	2026	
112	1	1660	2029	
113	1	1660	2036	
114	1	1660	2042	
115	1	1660	2051	
116	1	1660	2049	
117	1	1660	2039	
118	1	1660	2039	
119	1	1660	2034	
120	1	1660	2041	
121	1	1660	2046	
122	1	1660	2050	
123	1	1660	2053	
124	1	1660	2061	
125	1	1660	2058	
126	1	1660	2035	
127	1	1660	2018	
128	1	1660	2009	
129	1	1660	2015	
130	1	1660	2017	
131	1	1660	2013	
132	1	1660	2014	
133	1	1659	2014	
134	1	1660	2016	
135	1	1660	2022	
136	1	1660	2035	
137	1	1660	2047	
138	1	1660	2055	
139	1	1660	2066	
140	1	1660	2059	
141	1	1660	2046	
142	1	1660	2039	
143	1	1660	2038	
144	1	1659	2038	
145	1	1660	2028	
146	1	1660	2033	
147	1	1660	2020	
148	1	1659	2006	
149	1	1660	2006	
150	1	1659	1998	
151	1	1660	2005	
152	1	1660	2004	
153	1	1660	2016	
154	1	1659	2013	
155	1	1659	2009	
156	1	1660	2014	
157	1	1660	2019	
158	1	1660	2021	
159	1	1660	2027	
160	1	1659	2024	
161	1	1660	2024	
162	1	1660	2030	
163	1	1660	2043	
164	1	1660	2041	
165	1	1660	2039	
166	1	1660	2045	
167	1	1660	2041	
168	1	1660	2053	
169	1	1660	2058	
170	1	1659	2067	
171	1	1660	2061	
172	1	1659	2064	
173	1	1660	2054	
174	1	1660	2061	
175	1	1660	2063	
176	1	1660	2071	
177	1	1660	2065	
178	1	1660	2065	
179	1	1659	2058	
180	1	1659	2062	
181	1	1660	2057	
182	1	1659	2064	
183	1	1659	2064	
184	1	1659	2056	
185	1	1660	2059	
186	1	1659	2058	
187	1	1660	2055	
188	1	1659	2066	
189	1	1659	2072	
190	1	1660	2074	
191	1	1660	2072	
192	1	1660	2068	
193	1	1660	2067	
194	1	1660	2063	
195	1	1660	2065	
196	1	1660	2064	
197	1	1660	2061	
198	1	1660	2059	
199	1	1660	2045	
200	1	1660	2041	
201	1	1660	2035	
202	1	1660	2036	
203	1	1660	2034	
204	1	1660	2038	
205	1	1660	2039	
206	1	1660	2041	
207	1	1660	2038	
208	1	1660	2023	
209	1	1660	2024	
210	1	1660	2024	
211	1	1660	2035	
212	1	1660	2030	
213	1	1660	2033	
214	1	1660	2028	
215	1	1659	2036	
216	1	1659	2038	
217	1	1660	2045	
218	1	1660	2042	
219	1	1660	2051	
220	1	1660	2050	
221	1	1659	2055	
222	1	1659	2048	
223	1	1659	2056	
224	1	1660	2057	
225	1	1660	2063	
226	1	1659	2063	
227	1	1659	2064	
228	1	1659	2066	
229	1	1659	2054	
230	1	1660	2053	
231	1	1660	2050	
232	1	1660	2054	
233	1	1659	2045	
234	1	1660	2042	
235	1	1660	2038	
236	1	1660	2028	
237	1	1660	2025	
238	1	1660	2016	
239	1	1660	2020	
240	1	1660	2019	
241	1	1660	2014	
242	1	1660	2020	
243	1	1660	2022	
244	1	1660	2014	
245	1	1660	2020	
246	1	1660	2020	
247	1	1660	2026	
248	1	1660	2023	
249	1	1660	2021	
250	1	1659	2025	
251	1	1659	2023	
252	1	1659	2031	
253	1	1660	2033	
254	1	1660	2028	
255	1	1659	2027	
256	1	1660	2016	
257	1	1660	2019	
258	1	1660	2017	
259	1	1659	2027	
260	1	1660	2023	
261	1	1660	2027	
262	1	1660	2024	
263	1	1660	2030	
264	1	1660	2034	
265	1	1660	2032	
266	1	1659	2033	
267	1	1659	2029	
268	1	1659	2030	
269	1	1660	2037	
270	1	1659	2033	
271	1	1660	2041	
272	1	1660	2039	
273	1	1660	2046	
274	1	1660	2051	
275	1	1659	2055	
276	1	1659	2064	
277	1	1660	2065	
278	1	1660	2070	
279	1	1660	2072	
280	1	1659	2062	
281	1	1660	2064	
282	1	1660	2067	
283	1	1659	2072	
284	1	1660	2058	
285	1	1660	2061	
286	1	1660	2058	
287	1	1660	2064	
288	1	1659	2060	
289	1	1659	2062	
290	1	1659	2057	
291	1	1660	2053	
292	1	1660	2057	
293	1	1660	2047	
294	1	1660	2049	
295	1	1659	2045	
296	1	1659	2051	
297	1	1659	2073	
298	1	1659	2084	
299	1	1659	2107	
300	1	1659	2116	
301	1	1659	2124	
302	1	1659	2118	
303	1	1659	2124	
304	1	1659	2131	
305	1	1659	2134	
306	1	1659	2144	
307	1	1659	2139	
308	1	1659	2133	
309	1	1659	2117	
310	1	1659	2106	
311	1	1659	2083	
312	1	1659	2076	
313	1	1659	2061	
314	1	1659	2055	
315	1	1659	2038	
316	1	1659	2035	
317	1	1659	2033	
318	1	1659	2032	
319	1	1659	2030	
320	1	1659	2034	
321	1	1659	2031	
322	1	1659	2041	
323	1	1659	2040	
324	1	1659	2048	
325	1	1659	2046	
326	1	1659	2054	
327	1	1659	2053	
328	1	1659	2060	
329	1	1659	2057	
330	1	1659	2062	
331	1	1659	2054	
332	1	1658	2053	
333	1	1659	2047	
334	1	1658	2047	
335	1	1658	2039	
336	1	1658	2034	
337	1	1659	2037	
338	1	1658	2032	
339	1	1658	2034	
340	1	1659	2036	
341	1	1658	2034	
342	1	1658	2040	
343	1	1658	2032	
344	1	1658	2036	
345	1	1658	2029	
346	1	1658	2025	
347	1	1658	2022	
348	1	1658	2023	
349	1	1658	2024	
350	1	1658	2043	
351	1	1658	2050	
352	1	1658	2057	
353	1	1658	2050	
354	1	1658	2044	
355	1	1658	2032	
356	1	1658	2031	
357	1	1658	2024	
358	1	1658	2027	
359	1	1657	2023	
360	1	1657	2033	
361	1	1657	2044	
362	1	1657	2076	
363	1	1657	2106	
364	1	1657	2119	
365	1	1657	2124	
366	1	1657	2118	
367	1	1657	2112	
368	1	1657	2117	
369	1	1657	2115	
370	1	1657	2116	
371	1	1657	2101	
372	1	1657	2098	
373	1	1657	2089	
374	1	1657	2097	
375	1	1657	2120	
376	1	1657	2120	
377	1	1657	2076	
378	1	1657	2037	
379	1	1657	2001	
380	1	1657	1992	
381	1	1657	1991	
382	1	1657	1996	
383	1	1657	2004	
384	1	1657	1998	
385	1	1657	1989	
386	1	1657	1974	
387	1	1657	1973	
388	1	1656	1964	
389	1	1656	1960	
390	1	1656	1947	
391	1	1656	1941	
392	1	1656	1938	
393	1	1656	1937	
394	1	1656	1932	
395	1	1656	1937	
396	1	1657	1940	
397	1	1656	1945	
398	1	1656	1949	
399	1	1656	1948	
400	1	1656	1945	
401	1	1656	1954	
402	1	1656	1954	
403	1	1656	1959	
404	1	1656	1964	
405	1	1656	1964	
406	1	1656	1976	
407	1	1656	1974	
408	1	1656	1987	
409	1	1656	1995	
410	1	1656	2002	
411	1	1656	2012	
412	1	1656	2005	
413	1	1656	1998	
414	1	1656	1991	
415	1	1655	1985	
416	1	1656	1981	
417	1	1656	1981	
418	1	1655	1970	
419	1	1655	1973	
420	1	1656	1972	
421	1	1655	1968	
422	1	1655	1969	
423	1	1655	1965	
424	1	1655	1971	
425	1	1655	1972	
426	1	1655	1982	
427	1	1655	1983	
428	1	1655	1991	
429	1	1655	1983	
430	1	1655	1988	
431	1	1655	1985	
432	1	1655	1997	
433	1	1655	2007	
434	1	1655	2021	
435	1	1655	2031	
436	1	1655	2036	
437	1	1654	2048	
438	1	1655	2046	
439	1	1655	2040	
440	1	1655	2031	
441	1	1655	2019	
442	1	1655	2010	
443	1	1655	1999	
444	1	1655	2006	
445	1	1655	2004	
446	1	1655	2010	
447	1	1654	2009	
448	1	1654	2015	
449	1	1655	2013	
450	1	1655	2026	
451	1	1655	2028	
452	1	1655	2035	
453	1	1655	2032	
454	1	1654	2045	
455	1	1655	2055	
456	1	1655	2065	
457	1	1655	2074	
458	1	1654	2079	
459	1	1655	2092	
460	1	1655	2095	
461	1	1654	2097	
462	1	1654	2098	
463	1	1655	2089	
464	1	1655	2094	
465	1	1655	2087	
466	1	1655	2073	
467	1	1654	2065	
468	1	1654	2051	
469	1	1655	2044	
470	1	1654	2035	
471	1	1655	2025	
472	1	1655	2018	
473	1	1655	2007	
474	1	1654	1996	
475	1	1654	1993	
476	1	1655	1983	
477	1	1655	1973	
478	1	1655	1970	
479	1	1655	1965	
480	1	1655	1977	
481	1	1654	2002	
482	1	1654	2016	
483	1	1654	2032	
484	1	1654	2069	
485	1	1654	2135	
486	1	1654	2173	
487	1	1654	2183	
488	1	1654	2164	
489	1	1654	2146	
490	1	1654	2137	
491	1	1654	2148	
492	1	1654	2156	
493	1	1654	2166	
494	1	1653	2160	
495	1	1654	2154	
496	1	1654	2130	
497	1	1654	2108	
498	1	1654	2074	
499	1	1654	2044	
500	1	1654	2007	
501	1	1654	1986	
502	1	1654	1963	
503	1	1654	1949	
504	1	1654	1935	
505	1	1654	1938	
506	1	1654	1934	
507	1	1654	1939	
508	1	1654	1950	
509	1	1653	1962	
510	1	1654	1983	
511	1	1654	1993	
512	1	1654	2003	
513	1	1653	2017	
514	1	1653	2028	
515	1	1653	2041	
516	1	1653	2049	
517	1	1653	2064	
518	1	1653	2066	
519	1	1653	2074	
520	1	1653	2072	
521	1	1653	2075	
522	1	1653	2080	
523	1	1653	2079	
524	1	1653	2078	
525	1	1653	2064	
526	1	1653	2060	
527	1	1653	2049	
528	1	1653	2047	
529	1	1653	2038	
530	1	1653	2030	
531	1	1654	2030	
532	1	1653	2024	
533	1	1653	2020	
534	1	1654	2027	
535	1	1653	2021	
536	1	1653	2030	
537	1	1654	2034	
538	1	1653	2045	
539	1	1654	2048	
540	1	1653	2050	
541	1	1653	2059	
542	1	1654	2066	
543	1	1653	2095	
544	1	1653	2112	
545	1	1654	2117	
546	1	1653	2104	
547	1	1653	2120	
548	1	1653	2135	
549	1	1653	2144	
550	1	1653	2145	
551	1	1653	2147	
552	1	1653	2149	
553	1	1653	2164	
554	1	1653	2170	
555	1	1653	2172	
556	1	1653	2175	
557	1	1653	2161	
558	1	1654	2151	
559	1	1654	2138	
560	1	1654	2143	
561	1	1654	2144	
562	1	1654	2157	
563	1	1654	2166	
564	1	1655	2172	
565	1	1655	2191	
566	1	1655	2202	
567	1	1655	2212	
568	1	1655	2235	
569	1	1656	2250	
570	1	1656	2275	
571	1	1656	2288	
572	1	1656	2303	
573	1	1656	2309	
574	1	1656	2309	
575	1	1656	2312	
576	1	1657	2305	
577	1	1657	2293	
578	1	1657	2280	
579	1	1657	2256	
580	1	1657	2233	
581	1	1657	2195	
582	1	1657	2144	
583	1	1657	2103	
584	1	1657	2062	
585	1	1657	2027	
586	1	1657	2001	
587	1	1657	1994	
588	1	1657	1982	
589	1	1656	1983	
590	1	1656	1979	
591	1	1656	1980	
592	1	1656	1981	
593	1	1656	1977	
594	1	1656	1987	
595	1	1656	1996	
596	1	1656	2016	
597	1	1656	2033	
598	1	1656	2062	
599	1	1656	2080	
600	1	1656	2103	
601	1	1655	2115	
602	1	1655	2123	
603	1	1655	2122	
604	1	1655	2108	
605	1	1655	2090	
606	1	1655	2069	
607	1	1655	2046	
608	1	1655	2033	
609	1	1655	2014	
610	1	1655	2006	
611	1	1655	2000	
612	1	1655	2005	
613	1	1655	2039	
614	1	1655	2051	
615	1	1655	2063	
616	1	1655	2076	
617	1	1655	2071	
618	1	1654	2079	
619	1	1654	2097	
620	1	1654	2108	
621	1	1654	2129	
622	1	1654	2136	
623	1	1654	2125	
624	1	1654	2118	
625	1	1655	2106	
626	1	1654	2097	
627	1	1654	2079	
628	1	1654	2070	
629	1	1654	2060	
630	1	1654	2046	
631	1	1654	2037	
632	1	1655	2018	
633	1	1654	2006	
634	1	1654	1990	
635	1	1654	1989	
636	1	1654	1983	
637	1	1654	1983	
638	1	1654	1988	
639	1	1654	1986	
640	1	1654	1995	
641	1	1654	2002	
642	1	1654	2007	
643	1	1654	2013	
644	1	1654	2015	
645	1	1654	2008	
646	1	1654	2001	
647	1	1654	2010	
648	1	1654	2008	
649	1	1654	1998	
650	1	1654	2000	
651	1	1654	1994	
652	1	1654	1999	
653	1	1654	1992	
654	1	1654	1996	
655	1	1654	1992	
656	1	1654	1998	
657	1	1653	1993	
658	1	1654	1996	
659	1	1653	1994	
660	1	1653	1992	
661	1	1653	1998	
662	1	1653	1998	
663	1	1653	1999	
664	1	1653	2007	
665	1	1654	2000	
666	1	1653	1992	
667	1	1654	1986	
668	1	1653	1977	
669	1	1653	1992	
670	1	1653	1997	
671	1	1653	1997	
672	1	1653	2018	
673	1	1653	2045	
674	1	1653	2087	
675	1	1653	2092	
676	1	1653	2089	
677	1	1653	2080	
678	1	1653	2074	
679	1	1653	2067	
680	1	1652	2055	
681	1	1653	2054	
682	1	1652	2042	
683	1	1653	2037	
684	1	1652	2028	
685	1	1652	2008	
686	1	1652	1995	
687	1	1652	1979	
688	1	1652	1974	
689	1	1652	1969	
690	1	1653	1962	
691	1	1652	1960	
692	1	1652	1954	
693	1	1652	1955	
694	1	1652	1960	
695	1	1652	1957	
696	1	1652	1966	
697	1	1652	1965	
698	1	1652	1975	
699	1	1652	1975	
700	1	1652	1981	
701	1	1652	1985	
702	1	1652	1987	
703	1	1652	1998	
704	1	1651	2012	
705	1	1652	2034	
706	1	1651	2053	
707	1	1651	2082	
708	1	1651	2115	
709	1	1651	2137	
710	1	1651	2157	
711	1	1651	2163	
712	1	1651	2156	
713	1	1651	2138	
714	1	1651	2115	
715	1	1651	2086	
716	1	1651	2056	
717	1	1651	2038	
718	1	1651	2012	
719	1	1651	2006	
720	1	1651	2001	
721	1	1651	2016	
722	1	1651	2030	
723	1	1651	2045	
724	1	1651	2076	
725	1	1651	2096	
726	1	1651	2112	
727	1	1651	2130	
728	1	1651	2136	
729	1	1651	2143	
730	1	1651	2166	
731	1	1651	2154	
732	1	1651	2151	
733	1	1651	2147	
734	1	1651	2126	
735	1	1651	2113	
736	1	1651	2091	
737	1	1651	2080	
738	1	1651	2061	
739	1	1651	2052	
740	1	1652	2039	
741	1	1651	2032	
742	1	1651	2023	
743	1	1651	2007	
744	1	1651	2001	
745	1	1651	2004	
746	1	1651	2005	
747	1	1651	2010	
748	1	1651	2023	
749	1	1651	2030	
750	1	1651	2045	
751	1	1651	2076	
752	1	1651	2085	
753	1	1651	2097	
754	1	1651	2115	
755	1	1650	2140	
756	1	1650	2167	
757	1	1650	2178	
758	1	1650	2208	
759	1	1650	2227	
760	1	1650	2244	
761	1	1651	2253	
762	1	1651	2250	
763	1	1651	2252	
764	1	1651	2242	
765	1	1651	2227	
766	1	1651	2212	
767	1	1651	2180	
768	1	1651	2154	
769	1	1651	2116	
770	1	1652	2087	
771	1	1652	2052	
772	1	1652	2021	
773	1	1652	1997	
774	1	1652	1974	
775	1	1652	1949	
776	1	1652	1943	
777	1	1652	1937	
778	1	1652	1956	
779	1	1652	1974	
780	1	1652	1993	
781	1	1652	2005	
782	1	1652	2042	
783	1	1652	2063	
784	1	1652	2100	
785	1	1651	2137	
786	1	1652	2159	
787	1	1652	2176	
788	1	1651	2185	
789	1	1651	2183	
790	1	1652	2159	
791	1	1652	2123	
792	1	1651	2077	
793	1	1652	2038	
794	1	1652	1993	
795	1	1652	1959	
796	1	1652	1919	
797	1	1652	1898	
798	1	1652	1878	
799	1	1652	1874	
800	1	1652	1875	
801	1	1652	1881	
802	1	1652	1891	
803	1	1652	1896	
804	1	1652	1914	
805	1	1652	1932	
806	1	1652	1947	
807	1	1651	1974	
808	1	1651	1989	
809	1	1651	2014	
810	1	1651	2059	
811	1	1651	2100	
812	1	1651	2142	
813	1	1651	2156	
814	1	1651	2163	
815	1	1651	2164	
816	1	1651	2176	
817	1	1651	2178	
818	1	1651	2163	
819	1	1651	2148	
820	1	1651	2120	
821	1	1651	2092	
822	1	1651	2043	
823	1	1651	2005	
824	1	1651	1964	
825	1	1651	1942	
826	1	1651	1920	
827	1	1651	1920	
828	1	1651	1915	
829	1	1651	1917	
830	1	1651	1911	
831	1	1651	1912	
832	1	1652	1908	
833	1	1652	1904	
834	1	1652	1908	
835	1	1651	1909	
836	1	1651	1911	
837	1	1652	1893	
838	1	1651	1891	
839	1	1652	1897	
840	1	1652	1917	
841	1	1652	1924	
842	1	1652	1930	
843	1	1652	1919	
844	1	1652	1917	
845	1	1652	1908	
846	1	1652	1915	
847	1	1652	1910	
848	1	1652	1912	
849	1	1651	1904	
850	1	1652	1902	
851	1	1652	1902	
852	1	1652	1894	
853	1	1652	1897	
854	1	1652	1896	
855	1	1652	1902	
856	1	1652	1909	
857	1	1652	1919	
858	1	1652	1944	
859	1	1652	1954	
860	1	1652	1961	
861	1	1652	1965	
862	1	1652	1966	
863	1	1651	1978	
864	1	1651	1980	
865	1	1652	1993	
866	1	1652	2001	
867	1	1651	2008	
868	1	1651	1998	
869	1	1651	1997	
870	1	1651	1987	
871	1	1651	1993	
872	1	1651	1995	
873	1	1651	2010	
874	1	1651	2023	
875	1	1650	2030	
876	1	1650	2043	
877	1	1650	2049	
878	1	1650	2064	
879	1	1650	2064	
880	1	1650	2061	
881	1	1650	2053	
882	1	1651	2040	
883	1	1650	2037	
884	1	1651	2030	
885	1	1650	2028	
886	1	1650	2026	
887	1	1650	2047	
888	1	1650	2062	
889	1	1650	2059	
890	1	1650	2041	
891	1	1650	2046	
892	1	1650	2064	
893	1	1649	2081	
894	1	1650	2108	
895	1	1649	2132	
896	1	1649	2164	
897	1	1649	2185	
898	1	1649	2191	
899	1	1649	2194	
900	1	1649	2182	
901	1	1649	2177	
902	1	1649	2162	
903	1	1649	2141	
904	1	1649	2121	
905	1	1649	2104	
906	1	1649	2079	
907	1	1649	2056	
908	1	1649	2040	
909	1	1650	2021	
910	1	1649	2015	
911	1	1650	2006	
912	1	1649	1998	
913	1	1649	1997	
914	1	1650	1998	
915	1	1650	2004	
916	1	1650	2015	
917	1	1649	2030	
918	1	1649	2052	
919	1	1649	2064	
920	1	1649	2067	
921	1	1649	2077	
922	1	1649	2083	
923	1	1649	2104	
924	1	1649	2125	
925	1	1649	2164	
926	1	1649	2188	
927	1	1649	2216	
928	1	1650	2222	
929	1	1649	2218	
930	1	1650	2212	
931	1	1650	2182	
932	1	1650	2160	
933	1	1650	2136	
934	1	1650	2105	
935	1	1650	2093	
936	1	1650	2079	
937	1	1650	2067	
938	1	1650	2066	
939	1	1650	2058	
940	1	1650	2061	
941	1	1650	2056	
942	1	1650	2064	
943	1	1650	2062	
944	1	1650	2063	
945	1	1650	2049	
946	1	1650	2044	
947	1	1650	2039	
948	1	1650	2053	
949	1	1650	2064	
950	1	1650	2078	
951	1	1651	2089	
952	1	1651	2099	
953	1	1651	2114	
954	1	1651	2125	
955	1	1651	2139	
956	1	1651	2147	
957	1	1651	2165	
958	1	1651	2171	
959	1	1652	2164	
960	1	1652	2158	
961	1	1652	2139	
962	1	1652	2130	
963	1	1652	2107	
964	1	1652	2080	
965	1	1652	2053	
966	1	1652	2024	
967	1	1652	2009	
968	1	1653	1986	
969	1	1652	1975	
970	1	1652	1965	
971	1	1653	1970	
972	1	1654	1970	
973	1	1654	1973	
974	1	1654	1989	
975	1	1654	2005	
976	1	1655	2030	
977	1	1655	2043	
978	1	1656	2062	
979	1	1656	2073	
980	1	1656	2086	
981	1	1657	2098	
982	1	1657	2129	
983	1	1658	2128	
984	1	1658	2133	
985	1	1659	2143	
986	1	1659	2149	
987	1	1660	2164	
988	1	1660	2169	
989	1	1661	2175	
990	1	1662	2188	
991	1	1662	2188	
992	1	1663	2198	
993	1	1663	2201	
994	1	1664	2213	
995	1	1664	2218	
996	1	1665	2240	
997	1	1665	2263	
998	1	1666	2281	
999	1	1666	2303	
1000	1	1667	2310	
1001	1	1668	2313	
1002	1	1668	2295	
1003	1	1668	2274	
1004	1	1669	2250	
1005	1	1669	2221	
1006	1	1669	2190	
1007	1	1670	2150	
1008	1	1670	2108	
1009	1	1670	2061	
1010	1	1670	2016	
1011	1	1670	1982	
1012	1	1670	1951	
1013	1	1670	1937	
1014	1	1671	1918	
1015	1	1671	1913	
1016	1	1671	1899	
1017	1	1671	1892	
1018	1	1671	1880	
1019	1	1672	1875	
1020	1	1672	1862	
1021	1	1672	1861	
1022	1	1672	1864	
1023	1	1672	1864	
1024	1	1673	1867	
1025	1	1673	1866	
1026	1	1673	1861	
1027	1	1673	1866	
1028	1	1673	1866	
1029	1	1674	1878	
1030	1	1674	1882	
1031	1	1674	1895	
1032	1	1674	1898	
1033	1	1675	1899	
1034	1	1674	1907	
1035	1	1675	1910	
1036	1	1674	1913	
1037	1	1675	1907	
1038	1	1675	1905	
1039	1	1675	1917	
1040	1	1675	1925	
1041	1	1676	1928	
1042	1	1676	1936	
1043	1	1676	1939	
1044	1	1676	1951	
1045	1	1676	1952	
1046	1	1677	1960	
1047	1	1677	1960	
1048	1	1677	1967	
1049	1	1677	1967	
1050	1	1677	1967	
1051	1	1677	1970	
1052	1	1678	1967	
1053	1	1678	1973	
1054	1	1678	1970	
1055	1	1678	1973	
1056	1	1679	1968	
1057	1	1679	1972	
1058	1	1679	1965	
1059	1	1679	1972	
1060	1	1679	1970	
1061	1	1680	1976	
1062	1	1680	1972	
1063	1	1680	1975	
1064	1	1680	1973	
1065	1	1680	1980	
1066	1	1681	1981	
1067	1	1681	1977	
1068	1	1681	1972	
1069	1	1680	1973	
1070	1	1681	1979	
1071	1	1681	1989	
1072	1	1684	2006	
1073	1	1688	2015	
1074	1	1692	2026	
1075	1	1694	2021	
1076	1	1695	2034	
1077	1	1695	2034	
1078	1	1694	2028	
1079	1	1696	2015	
1080	1	1699	2016	
1081	1	1700	2012	
1082	1	1701	2013	
1083	1	1702	1996	
1084	1	1703	1990	
1085	1	1704	1981	
1086	1	1704	1986	
1087	1	1705	1989	
1088	1	1706	1994	
1089	1	1707	1995	
1090	1	1707	1997	
1091	1	1708	1994	
1092	1	1708	1998	
1093	1	1709	1998	
1094	1	1709	1987	
1095	1	1710	1987	
1096	1	1711	1982	
1097	1	1711	1987	
1098	1	1711	1984	
1099	1	1712	1990	
1100	1	1711	1987	
1101	1	1712	1991	
1102	1	1712	1987	
1103	1	1712	1990	
1104	1	1712	1990	
1105	1	1712	1990	
1106	1	1712	1991	
1107	1	1712	1983	
1108	1	1712	1981	
1109	1	1712	1975	
1110	1	1712	1980	
1111	1	1712	1980	
1112	1	1712	1989	
1113	1	1712	1986	
1114	1	1712	1993	
1115	1	1712	1989	
1116	1	1711	1989	
1117	1	1711	1992	
1118	1	1710	1991	
1119	1	1710	1987	
1120	1	1710	1990	
1121	1	1709	1982	
1122	1	1708	1985	
1123	1	1707	1981	
1124	1	1707	1989	
1125	1	1705	1990	
1126	1	1704	2000	
1127	1	1704	2011	
1128	1	1702	2013	
1129	1	1701	2014	
1130	1	1701	2005	
1131	1	1700	2005	
1132	1	1699	2007	
1133	1	1698	2006	
1134	1	1697	2018	
1135	1	1696	2026	
1136	1	1695	2038	
1137	1	1695	2048	
1138	1	1694	2047	
1139	1	1693	2051	
1140	1	1693	2051	
1141	1	1692	2036	
1142	1	1691	2031	
1143	1	1690	2025	
1144	1	1690	2010	
1145	1	1690	2003	
1146	1	1689	1988	
1147	1	1688	1977	
1148	1	1688	1964	
1149	1	1687	1951	
1150	1	1687	1941	
1151	1	1686	1936	
1152	1	1685	1932	
1153	1	1685	1926	
1154	1	1684	1933	
1155	1	1683	1937	
1156	1	1682	1945	
1157	1	1682	1960	
1158	1	1681	1967	
1159	1	1681	1982	
1160	1	1680	1993	
1161	1	1679	1997	
1162	1	1678	2009	
1163	1	1678	2016	
1164	1	1677	2025	
1165	1	1677	2035	
1166	1	1676	2037	
1167	1	1676	2045	
1168	1	1675	2056	
1169	1	1674	2065	
1170	1	1674	2067	
1171	1	1674	2068	
1172	1	1674	2066	
1173	1	1673	2056	
1174	1	1672	2061	
1175	1	1672	2059	
1176	1	1672	2057	
1177	1	1671	2067	
1178	1	1671	2065	
1179	1	1670	2054	
1180	1	1669	2041	
1181	1	1669	2016	
1182	1	1669	2005	
1183	1	1668	1990	
1184	1	1668	1989	
1185	1	1668	1987	
1186	1	1667	1984	
1187	1	1667	1976	
1188	1	1666	1978	
1189	1	1666	1986	
1190	1	1665	1998	
1191	1	1665	2021	
1192	1	1664	2030	
1193	1	1664	2041	
1194	1	1664	2040	
1195	1	1663	2055	
1196	1	1663	2067	
1197	1	1663	2093	
1198	1	1662	2108	
1199	1	1662	2127	
1200	1	1661	2132	
1201	1	1661	2146	
1202	1	1661	2148	
1203	1	1661	2157	
1204	1	1661	2157	
1205	1	1660	2167	
1206	1	1660	2166	
1207	1	1660	2153	
1208	1	1660	2144	
1209	1	1660	2126	
1210	1	1660	2103	
1211	1	1660	2090	
1212	1	1660	2071	
1213	1	1660	2060	
1214	1	1660	2048	
1215	1	1660	2032	
1216	1	1660	2023	
1217	1	1660	2005	
1218	1	1660	1988	
1219	1	1660	1987	
1220	1	1659	1984	
1221	1	1659	1978	
1222	1	1659	1978	
1223	1	1659	1976	
1224	1	1659	1974	
1225	1	1659	1983	
1226	1	1659	1987	
1227	1	1659	2001	
1228	1	1658	2015	
1229	1	1658	2022	
1230	1	1659	2033	
1231	1	1658	2029	
1232	1	1658	2031	
1233	1	1658	2025	
1234	1	1658	2025	
1235	1	1658	2016	
1236	1	1658	2012	
1237	1	1658	1997	
1238	1	1658	1994	
1239	1	1658	1984	
1240	1	1658	1969	
1241	1	1658	1962	
1242	1	1658	1948	
1243	1	1658	1944	
1244	1	1658	1940	
1245	1	1658	1927	
1246	1	1658	1922	
1247	1	1658	1912	
1248	1	1658	1905	
1249	1	1657	1904	
1250	1	1658	1896	
1251	1	1657	1893	
1252	1	1657	1893	
1253	1	1657	1885	
1254	1	1656	1887	
1255	1	1656	1881	
1256	1	1656	1884	
1257	1	1656	1881	
1258	1	1656	1876	
1259	1	1655	1877	
1260	1	1655	1873	
1261	1	1655	1879	
1262	1	1655	1884	
1263	1	1655	1883	
1264	1	1654	1893	
1265	1	1654	1910	
1266	1	1654	1921	
1267	1	1654	1938	
1268	1	1654	1957	
1269	1	1654	1968	
1270	1	1654	1988	
1271	1	1654	1998	
1272	1	1654	2010	
1273	1	1654	2009	
1274	1	1654	2013	
1275	1	1654	2013	
1276	1	1654	1999	
1277	1	1654	1992	
1278	1	1654	1984	
1279	1	1654	1969	
1280	1	1654	1970	
1281	1	1654	1973	
1282	1	1653	1975	
1283	1	1653	1985	
1284	1	1654	1986	
1285	1	1653	1995	
1286	1	1654	2002	
1287	1	1653	2006	
1288	1	1653	2021	
1289	1	1653	2027	
1290	1	1653	2021	
1291	1	1653	2024	
1292	1	1653	2021	
1293	1	1653	2014	
1294	1	1654	2013	
1295	1	1654	2013	
1296	1	1653	2007	
1297	1	1653	2011	
1298	1	1653	2009	
1299	1	1654	1994	
1300	1	1654	1992	
1301	1	1654	1997	
1302	1	1654	1992	
1303	1	1654	1992	
1304	1	1654	1989	
1305	1	1655	1974	
1306	1	1659	1960	
1307	1	1662	1945	
1308	1	1664	1926	
1309	1	1665	1907	
1310	1	1667	1899	
1311	1	1668	1896	
1312	1	1667	1899	
1313	1	1667	1916	
1314	1	1666	1930	
1315	1	1666	1944	
1316	1	1665	1946	
1317	1	1665	1958	
1318	1	1664	1958	
1319	1	1664	1965	
1320	1	1664	1962	
1321	1	1663	1962	
1322	1	1663	1963	
1323	1	1663	1961	
1324	1	1663	1970	
1325	1	1662	1977	
1326	1	1663	1976	
1327	1	1665	1980	
1328	1	1667	1976	
1329	1	1668	1980	
1330	1	1669	1976	
1331	1	1671	1963	
1332	1	1671	1959	
1333	1	1672	1948	
1334	1	1673	1951	
1335	1	1674	1946	
1336	1	1674	1951	
1337	1	1675	1949	
1338	1	1675	1953	
1339	1	1676	1947	
1340	1	1676	1943	
1341	1	1676	1931	
1342	1	1676	1927	
1343	1	1676	1915	
1344	1	1676	1922	
1345	1	1677	1937	
1346	1	1677	1945	
1347	1	1677	1955	
1348	1	1677	1960	
1349	1	1677	1969	
1350	1	1677	1983	
1351	1	1676	1989	
1352	1	1677	2002	
1353	1	1677	2008	
1354	1	1677	2010	
1355	1	1677	2033	
1356	1	1677	2050	
1357	1	1677	2071	
1358	1	1677	2081	
1359	1	1677	2081	
1360	1	1677	2083	
1361	1	1677	2085	
1362	1	1677	2081	
1363	1	1677	2085	
1364	1	1677	2066	
1365	1	1677	2049	
1366	1	1677	2033	
1367	1	1677	2033	
1368	1	1677	2057	
1369	1	1677	2099	
1370	1	1676	2171	
1371	1	1676	2244	
1372	1	1676	2303	
1373	1	1676	2342	
1374	1	1676	2382	
1375	1	1676	2404	
1376	1	1675	2429	
1377	1	1675	2436	
1378	1	1675	2443	
1379	1	1675	2436	
1380	1	1675	2435	
1381	1	1675	2429	
1382	1	1674	2417	
1383	1	1675	2414	
1384	1	1674	2404	
1385	1	1674	2402	
1386	1	1674	2390	
1387	1	1674	2388	
1388	1	1674	2372	
1389	1	1674	2356	
1390	1	1674	2330	
1391	1	1674	2292	
1392	1	1673	2271	
1393	1	1673	2252	
1394	1	1673	2232	
1395	1	1673	2215	
1396	1	1673	2190	
1397	1	1673	2162	
1398	1	1673	2145	
1399	1	1673	2123	
1400	1	1673	2112	
1401	1	1672	2092	
1402	1	1672	2085	
1403	1	1672	2069	
1404	1	1672	2063	
1405	1	1672	2058	
1406	1	1672	2050	
1407	1	1671	2053	
1408	1	1672	2050	
1409	1	1671	2040	
1410	1	1671	2043	
1411	1	1671	2045	
1412	1	1671	2039	
1413	1	1671	2040	
1414	1	1671	2037	
1415	1	1670	2026	
1416	1	1670	2027	
1417	1	1670	2031	
1418	1	1670	2032	
1419	1	1670	2037	
1420	1	1669	2048	
1421	1	1669	2066	
1422	1	1669	2111	
1423	1	1669	2166	
1424	1	1669	2202	
1425	1	1669	2231	
1426	1	1668	2248	
1427	1	1668	2257	
1428	1	1668	2265	
1429	1	1668	2270	
1430	1	1668	2269	
1431	1	1668	2270	
1432	1	1668	2267	
1433	1	1667	2256	
1434	1	1667	2260	
1435	1	1667	2260	
1436	1	1667	2254	
1437	1	1667	2253	
1438	1	1667	2239	
1439	1	1666	2231	
1440	1	1666	2228	
1441	1	1666	2215	
1442	1	1666	2212	
1443	1	1666	2212	
1444	1	1666	2212	
1445	1	1665	2218	
1446	1	1665	2216	
1447	1	1665	2182	
1448	1	1665	2145	
1449	1	1665	2125	
1450	1	1665	2117	
1451	1	1664	2114	
1452	1	1664	2115	
1453	1	1664	2117	
1454	1	1664	2117	
1455	1	1664	2113	
1456	1	1664	2097	
1457	1	1664	2088	
1458	1	1663	2082	
1459	1	1663	2075	
1460	1	1663	2076	
1461	1	1663	2078	
1462	1	1662	2084	
1463	1	1662	2088	
1464	1	1662	2099	
1465	1	1662	2098	
1466	1	1662	2105	
1467	1	1662	2105	
1468	1	1662	2118	
1469	1	1662	2122	
1470	1	1661	2135	
1471	1	1661	2136	
1472	1	1661	2134	
1473	1	1661	2131	
1474	1	1661	2115	
1475	1	1661	2109	
1476	1	1661	2095	
1477	1	1661	2086	
1478	1	1661	2078	
1479	1	1661	2058	
1480	1	1661	2050	
1481	1	1661	2038	
1482	1	1661	2038	
1483	1	1661	2030	
1484	1	1660	2031	
1485	1	1661	2030	
1486	1	1661	2023	
1487	1	1661	2032	
1488	1	1660	2039	
1489	1	1660	2049	
1490	1	1660	2053	
1491	1	1660	2047	
1492	1	1660	2052	
1493	1	1660	2053	
1494	1	1660	2047	
1495	1	1660	2053	
1496	1	1660	2047	
1497	1	1660	2032	
1498	1	1660	2015	
1499	1	1660	1994	
1500	1	1660	1968	
1501	1	1660	1952	
1502	1	1660	1929	
1503	1	1660	1915	
1504	1	1660	1895	
1505	1	1660	1880	
1506	1	1660	1862	
1507	1	1660	1847	
1508	1	1660	1842	
1509	1	1660	1833	
1510	1	1660	1837	
1511	1	1660	1840	
1512	1	1660	1849	
1513	1	1660	1861	
1514	1	1659	1858	
1515	1	1660	1862	
1516	1	1659	1862	
1517	1	1659	1859	
1518	1	1659	1871	
1519	1	1659	1874	
1520	1	1658	1880	
1521	1	1658	1877	
1522	1	1658	1870	
1523	1	1658	1875	
1524	1	1657	1874	
1525	1	1657	1889	
1526	1	1657	1904	
1527	1	1657	1918	
1528	1	1657	1935	
1529	1	1656	1940	
1530	1	1656	1944	
1531	1	1656	1930	
1532	1	1656	1919	
1533	1	1656	1915	
1534	1	1656	1910	
1535	1	1656	1911	
1536	1	1656	1908	
1537	1	1655	1899	
1538	1	1655	1903	
1539	1	1655	1903	
1540	1	1655	1906	
1541	1	1655	1909	
1542	1	1655	1906	
1543	1	1655	1913	
1544	1	1654	1913	
1545	1	1654	1920	
1546	1	1654	1920	
1547	1	1654	1928	
1548	1	1654	1929	
1549	1	1654	1930	
1550	1	1654	1937	
1551	1	1654	1941	
1552	1	1654	1953	
1553	1	1654	1951	
1554	1	1654	1954	
1555	1	1653	1951	
1556	1	1653	1963	
1557	1	1653	1971	
1558	1	1653	1989	
1559	1	1653	1992	
1560	1	1653	1981	
1561	1	1652	1980	
1562	1	1652	1965	
1563	1	1652	1961	
1564	1	1652	1954	
1565	1	1652	1947	
1566	1	1652	1935	
1567	1	1652	1921	
1568	1	1652	1909	
1569	1	1651	1919	
1570	1	1651	1934	
1571	1	1651	1944	
1572	1	1651	1947	
1573	1	1651	1944	
1574	1	1650	1937	
1575	1	1650	1946	
1576	1	1650	1946	
1577	1	1650	1950	
1578	1	1650	1952	
1579	1	1650	1953	
1580	1	1650	1954	
1581	1	1650	1951	
1582	1	1650	1948	
1583	1	1650	1952	
1584	1	1650	1945	
1585	1	1650	1948	
1586	1	1650	1947	
1587	1	1650	1949	
1588	1	1649	1956	
1589	1	1649	1957	
1590	1	1649	1949	
1591	1	1649	1948	
1592	1	1649	1950	
1593	1	1649	1948	
1594	1	1649	1952	
1595	1	1649	1957	
1596	1	1649	1955	
1597	1	1649	1958	
1598	1	1649	1962	
1599	1	1649	1962	
1600	1	1649	1969	
1601	1	1649	1978	
1602	1	1649	1976	
1603	1	1649	1978	
1604	1	1649	1985	
1605	1	1649	1984	
1606	1	1649	1991	
1607	1	1648	1990	
1608	1	1649	1997	
1609	1	1648	1992	
1610	1	1649	1997	
1611	1	1648	2005	
1612	1	1649	2005	
1613	1	1648	2014	
1614	1	1649	2017	
1615	1	1649	2016	
1616	1	1649	2022	
1617	1	1649	2027	
1618	1	1648	2028	
1619	1	1649	2022	
1620	1	1649	2026	
1621	1	1649	2022	
1622	1	1649	2020	
1623	1	1649	2016	
1624	1	1649	2006	
1625	1	1649	2006	
1626	1	1649	2010	
1627	1	1649	2007	
1628	1	1649	2012	
1629	1	1649	2015	
1630	1	1649	2010	
1631	1	1649	2015	
1632	1	1649	2016	
1633	1	1648	2032	
1634	1	1648	2044	
1635	1	1648	2051	
1636	1	1648	2069	
1637	1	1648	2079	
1638	1	1648	2092	
1639	1	1649	2113	
1640	1	1648	2126	
1641	1	1648	2146	
1642	1	1648	2156	
1643	1	1649	2175	
1644	1	1649	2191	
1645	1	1649	2207	
1646	1	1649	2227	
1647	1	1649	2241	
1648	1	1649	2254	
1649	1	1650	2272	
1650	1	1649	2283	
1651	1	1649	2302	
1652	1	1649	2312	
1653	1	1649	2324	
1654	1	1649	2341	
1655	1	1649	2342	
1656	1	1650	2352	
1657	1	1650	2347	
1658	1	1650	2352	
1659	1	1650	2343	
1660	1	1650	2337	
1661	1	1650	2312	
1662	1	1650	2289	
1663	1	1650	2249	
1664	1	1650	2211	
1665	1	1650	2162	
1666	1	1650	2106	
1667	1	1650	2057	
1668	1	1650	2009	
1669	1	1650	1982	
1670	1	1650	1956	
1671	1	1649	1950	
1672	1	1649	1943	
1673	1	1649	1949	
1674	1	1649	1955	
1675	1	1649	1955	
1676	1	1649	1962	
1677	1	1649	1966	
1678	1	1649	1979	
1679	1	1649	1980	
1680	1	1649	1983	
1681	1	1648	1990	
1682	1	1649	1994	
1683	1	1648	2002	
1684	1	1648	2006	
1685	1	1648	2022	
1686	1	1648	2028	
1687	1	1648	2037	
1688	1	1648	2040	
1689	1	1648	2050	
1690	1	1647	2053	
1691	1	1647	2060	
1692	1	1647	2058	
1693	1	1647	2056	
1694	1	1647	2052	
1695	1	1647	2051	
1696	1	1647	2045	
1697	1	1647	2042	
1698	1	1646	2048	
1699	1	1647	2043	
1700	1	1646	2045	
1701	1	1647	2035	
1702	1	1646	2031	
1703	1	1647	2031	
1704	1	1646	2029	
1705	1	1646	2028	
1706	1	1646	2033	
1707	1	1646	2036	
1708	1	1646	2042	
1709	1	1646	2039	
1710	1	1646	2046	
1711	1	1646	2043	
1712	1	1646	2048	
1713	1	1646	2041	
1714	1	1646	2041	
1715	1	1646	2043	
1716	1	1645	2043	
1717	1	1645	2048	
1718	1	1645	2043	
1719	1	1645	2050	
1720	1	1645	2045	
1721	1	1645	2053	
1722	1	1645	2060	
1723	1	1645	2057	
1724	1	1645	2060	
1725	1	1645	2056	
1726	1	1645	2058	
1727	1	1645	2054	
1728	1	1645	2059	
1729	1	1645	2056	
1730	1	1645	2062	
1731	1	1645	2065	
1732	1	1645	2062	
1733	1	1645	2067	
1734	1	1645	2062	
1735	1	1645	2067	
1736	1	1645	2066	
1737	1	1645	2076	
1738	1	1644	2082	
1739	1	1645	2082	
1740	1	1644	2089	
1741	1	1644	2087	
1742	1	1644	2092	
1743	1	1645	2092	
1744	1	1645	2096	
1745	1	1645	2093	
1746	1	1645	2101	
1747	1	1644	2098	
1748	1	1644	2105	
1749	1	1644	2107	
1750	1	1645	2124	
1751	1	1644	2131	
1752	1	1645	2143	
1753	1	1644	2139	
1754	1	1645	2149	
1755	1	1645	2149	
1756	1	1645	2159	
1757	1	1645	2153	
1758	1	1645	2153	
1759	1	1645	2150	
1760	1	1645	2148	
1761	1	1644	2149	
1762	1	1645	2147	
1763	1	1645	2151	
1764	1	1645	2156	
1765	1	1645	2160	
1766	1	1645	2160	
1767	1	1645	2163	
1768	1	1645	2155	
1769	1	1645	2158	
1770	1	1645	2159	
1771	1	1646	2156	
1772	1	1645	2159	
1773	1	1646	2154	
1774	1	1645	2155	
1775	1	1645	2150	
1776	1	1646	2154	
1777	1	1646	2139	
1778	1	1646	2120	
1779	1	1646	2106	
1780	1	1646	2091	
1781	1	1646	2089	
1782	1	1646	2081	
1783	1	1645	2077	
1784	1	1646	2071	
1785	1	1645	2061	
1786	1	1646	2061	
1787	1	1646	2057	
1788	1	1646	2063	
1789	1	1645	2062	
1790	1	1646	2056	
1791	1	1646	2045	
1792	1	1646	2044	
1793	1	1646	2045	
1794	1	1645	2043	
1795	1	1646	2046	
1796	1	1645	2035	
1797	1	1646	2034	
1798	1	1646	2026	
1799	1	1645	2023	
1800	1	1645	2022	
1801	1	1645	2024	
1802	1	1645	2028	
1803	1	1645	2024	
1804	1	1646	2023	
1805	1	1645	2009	
1806	1	1646	2004	
1807	1	1645	2000	
1808	1	1645	1994	
1809	1	1646	1999	
1810	1	1646	1997	
1811	1	1645	2003	
1812	1	1646	2000	
1813	1	1645	2001	
1814	1	1646	2003	
1815	1	1646	1999	
1816	1	1645	2003	
1817	1	1645	2000	
1818	1	1646	2004	
1819	1	1645	2000	
1820	1	1645	2005	
1821	1	1645	2004	
1822	1	1645	2010	
1823	1	1646	2007	
1824	1	1645	2011	
1825	1	1645	2019	
1826	1	1645	2023	
1827	1	1645	2026	
1828	1	1645	2020	
1829	1	1646	2028	
1830	1	1645	2036	
1831	1	1646	2034	
1832	1	1646	2039	
1833	1	1645	2035	
1834	1	1645	2030	
1835	1	1645	2027	
1836	1	1646	2020	
1837	1	1645	2008	
1838	1	1646	2009	
1839	1	1646	2003	
1840	1	1646	2001	
1841	1	1646	1999	
1842	1	1646	1995	
1843	1	1646	1995	
1844	1	1646	2002	
1845	1	1646	2004	
1846	1	1646	2004	
1847	1	1646	2015	
1848	1	1646	2017	
1849	1	1646	2026	
1850	1	1646	2035	
1851	1	1646	2037	
1852	1	1646	2035	
1853	1	1646	2033	
1854	1	1646	2035	
1855	1	1646	2030	
1856	1	1646	2033	
1857	1	1646	2038	
1858	1	1646	2041	
1859	1	1646	2043	
1860	1	1646	2053	
1861	1	1646	2061	
1862	1	1646	2062	
1863	1	1646	2071	
1864	1	1646	2079	
1865	1	1645	2074	
1866	1	1646	2083	
1867	1	1646	2087	
1868	1	1646	2088	
1869	1	1646	2094	
1870	1	1646	2090	
1871	1	1646	2094	
1872	1	1646	2093	
1873	1	1646	2087	
1874	1	1646	2085	
1875	1	1646	2076	
1876	1	1646	2075	
1877	1	1646	2067	
1878	1	1646	2066	
1879	1	1646	2061	
1880	1	1646	2070	
1881	1	1646	2066	
1882	1	1646	2074	
1883	1	1646	2073	
1884	1	1646	2085	
1885	1	1646	2094	
1886	1	1646	2101	
1887	1	1646	2111	
1888	1	1646	2111	
1889	1	1645	2104	
1890	1	1646	2118	
1891	1	1646	2113	
1892	1	1646	2107	
1893	1	1646	2099	
1894	1	1646	2082	
1895	1	1646	2075	
1896	1	1646	2066	
1897	1	1646	2051	
1898	1	1646	2035	
1899	1	1646	2031	
1900	1	1646	2019	
1901	1	1645	2017	
1902	1	1645	2006	
1903	1	1646	2002	
1904	1	1645	1991	
1905	1	1645	1991	
1906	1	1645	1983	
1907	1	1646	1979	
1908	1	1645	1978	
1909	1	1645	1974	
1910	1	1645	1977	
1911	1	1645	1973	
1912	1	1645	1978	
1913	1	1645	1980	
1914	1	1645	1974	
1915	1	1645	1978	
1916	1	1645	1978	
1917	1	1644	1971	
1918	1	1644	1974	
1919	1	1645	1974	
1920	1	1645	1967	
1921	1	1645	1968	
1922	1	1644	1973	
1923	1	1645	1973	
1924	1	1644	1982	
1925	1	1645	1982	
1926	1	1644	1989	
1927	1	1644	1989	
1928	1	1644	1996	
1929	1	1644	1999	
1930	1	1643	2001	
1931	1	1643	2002	
1932	1	1643	2006	
1933	1	1642	2012	
1934	1	1610	2141	
1935	1	1610	2252	
1936	1	1611	2302	
1937	1	1612	2337	
1938	1	1612	2346	
1939	1	1613	2352	
1940	1	1614	2347	
1941	1	1614	2329	
1942	1	1615	2316	
1943	1	1615	2288	
1944	1	1616	2269	
1945	1	1617	2244	
1946	1	1617	2220	
1947	1	1617	2194	
1948	1	1618	2176	
1949	1	1618	2157	
1950	1	1618	2147	
1951	1	1619	2129	
1952	1	1620	2111	
1953	1	1620	2088	
1954	1	1620	2079	
1955	1	1621	2060	
1956	1	1621	2053	
1957	1	1621	2036	
1958	1	1622	2030	
1959	1	1622	2014	
1960	1	1622	2013	
1961	1	1623	2004	
1962	1	1623	2004	
1963	1	1623	1999	
1964	1	1623	1996	
1965	1	1624	1985	
1966	1	1624	1981	
1967	1	1624	1971	
1968	1	1625	1973	
1969	1	1625	1974	
1970	1	1625	1965	
1971	1	1626	1964	
1972	1	1626	1963	
1973	1	1626	1953	
1974	1	1626	1952	
1975	1	1627	1953	
1976	1	1627	1949	
1977	1	1627	1949	
1978	1	1628	1952	
1979	1	1628	1945	
1980	1	1628	1946	
1981	1	1628	1941	
1982	1	1629	1942	
1983	1	1629	1934	
1984	1	1629	1939	
1985	1	1629	1936	
1986	1	1630	1942	
1987	1	1630	1940	
1988	1	1630	1943	
1989	1	1630	1940	
1990	1	1631	1946	
1991	1	1631	1941	
1992	1	1631	1944	
1993	1	1631	1938	
1994	1	1632	1936	
1995	1	1632	1939	
1996	1	1632	1936	
1997	1	1633	1938	
1998	1	1633	1940	
1999	1	1633	1939	
2000	1	1633	1945	
2001	1	1633	1945	
2002	1	1633	1952	
2003	1	1634	1950	
2004	1	1634	1957	
2005	1	1634	1956	
2006	1	1634	1958	
2007	1	1634	1959	
2008	1	1634	1953	
2009	1	1634	1956	
2010	1	1635	1951	
2011	1	1635	1953	
2012	1	1635	1946	
2013	1	1635	1951	
2014	1	1635	1948	
2015	1	1635	1949	
2016	1	1635	1953	
2017	1	1636	1947	
2018	1	1636	1950	
2019	1	1635	1946	
2020	1	1636	1949	
2021	1	1636	1943	
2022	1	1636	1945	
2023	1	1636	1935	
2024	1	1636	1934	
2025	1	1637	1932	
2026	1	1637	1933	
2027	1	1637	1938	
2028	1	1637	1946	
2029	1	1637	1949	
2030	1	1637	1951	
2031	1	1637	1958	
2032	1	1637	1966	
2033	1	1637	1966	
2034	1	1637	1973	
2035	1	1638	1972	
2036	1	1638	1977	
2037	1	1638	1974	
2038	1	1638	1975	
2039	1	1638	1973	
2040	1	1638	1976	
2041	1	1638	1977	
2042	1	1638	1971	
2043	1	1639	1975	
2044	1	1639	1972	
2045	1	1639	1973	
2046	1	1639	1972	
2047	1	1639	1972	
2048	1	1639	1967	
2049	1	1640	1971	
2050	1	1640	1967	
2051	1	1640	1971	
2052	1	1640	1968	
2053	1	1640	1970	
2054	1	1641	1965	
2055	1	1641	1967	
2056	1	1641	1962	
2057	1	1641	1966	
2058	1	1641	1965	
2059	1	1641	1971	
2060	1	1641	1971	
2061	1	1641	1976	
2062	1	1641	1984	
2063	1	1641	1983	
2064	1	1641	1985	
2065	1	1641	1988	
2066	1	1642	1987	
2067	1	1641	1992	
2068	1	1641	1985	
2069	1	1641	1986	
2070	1	1642	1979	
2071	1	1642	1979	
2072	1	1642	1969	
2073	1	1642	1969	
2074	1	1641	1962	
2075	1	1641	1969	
2076	1	1642	1971	
2077	1	1641	1980	
2078	1	1642	1993	
2079	1	1641	1994	
2080	1	1641	2002	
2081	1	1642	1999	
2082	1	1641	2005	
2083	1	1641	2004	
2084	1	1641	2008	
2085	1	1641	2007	
2086	1	1642	2013	
2087	1	1641	2011	
2088	1	1641	2015	
2089	1	1641	2016	
2090	1	1641	2016	
2091	1	1642	2024	
2092	1	1642	2023	
2093	1	1641	2031	
2094	1	1641	2035	
2095	1	1641	2038	
2096	1	1641	2035	
2097	1	1641	2042	
2098	1	1641	2037	
2099	1	1641	2035	
2100	1	1641	2028	
2101	1	1641	2034	
2102	1	1641	2032	
2103	1	1641	2031	
2104	1	1641	2030	
2105	1	1640	2026	
2106	1	1641	2031	
2107	1	1641	2027	
2108	1	1641	2030	
2109	1	1640	2026	
2110	1	1641	2028	
2111	1	1640	2021	
2112	1	1640	2025	
2113	1	1640	2019	
2114	1	1640	2024	
2115	1	1640	2021	
2116	1	1640	2026	
2117	1	1640	2024	
2118	1	1640	2032	
2119	1	1640	2029	
2120	1	1640	2034	
2121	1	1640	2030	
2122	1	1640	2035	
2123	1	1640	2027	
2124	1	1640	2029	
2125	1	1640	2021	
2126	1	1640	2020	
2127	1	1639	2017	
2128	1	1639	2025	
2129	1	1639	2024	
2130	1	1639	2030	
2131	1	1639	2028	
2132	1	1639	2026	
2133	1	1639	2032	
2134	1	1639	2031	
2135	1	1639	2041	
2136	1	1639	2038	
2137	1	1639	2034	
2138	1	1639	2030	
2139	1	1639	2023	
2140	1	1638	2027	
2141	1	1639	2021	
2142	1	1639	2029	
2143	1	1638	2023	
2144	1	1638	2026	
2145	1	1638	2027	
2146	1	1638	2022	
2147	1	1638	2026	
2148	1	1638	2024	
2149	1	1638	2020	
2150	1	1638	2025	
2151	1	1638	2022	
2152	1	1638	2024	
2153	1	1638	2022	
2154	1	1638	2031	
2155	1	1638	2033	
2156	1	1638	2035	
2157	1	1638	2027	
2158	1	1637	2035	
2159	1	1638	2040	
2160	1	1638	2055	
2161	1	1638	2064	
2162	1	1637	2079	
2163	1	1638	2085	
2164	1	1637	2101	
2165	1	1638	2117	
2166	1	1638	2134	
2167	1	1637	2159	
2168	1	1638	2181	
2169	1	1638	2201	
2170	1	1638	2223	
2171	1	1638	2237	
2172	1	1638	2261	
2173	1	1639	2273	
2174	1	1639	2299	
2175	1	1639	2315	
2176	1	1639	2338	
2177	1	1639	2355	
2178	1	1639	2377	
2179	1	1639	2382	
2180	1	1640	2394	
2181	1	1640	2392	
2182	1	1640	2395	
2183	1	1640	2384	
2184	1	1640	2381	
2185	1	1640	2364	
2186	1	1640	2341	
2187	1	1640	2298	
2188	1	1640	2255	
2189	1	1640	2202	
2190	1	1640	2137	
2191	1	1640	2082	
2192	1	1640	2028	
2193	1	1640	1986	
2194	1	1640	1967	
2195	1	1640	1951	
2196	1	1640	1942	
2197	1	1640	1945	
2198	1	1639	1945	
2199	1	1639	1951	
2200	1	1639	1961	
2201	1	1639	1961	
2202	1	1639	1959	
2203	1	1639	1960	
2204	1	1639	1967	
2205	1	1639	1983	
2206	1	1639	1990	
2207	1	1638	1992	
2208	1	1638	1999	
2209	1	1638	2003	
2210	1	1638	2015	
2211	1	1638	2021	
2212	1	1638	2022	
2213	1	1638	2032	
2214	1	1638	2029	
2215	1	1638	2021	
2216	1	1638	2025	
2217	1	1637	2021	
2218	1	1638	2027	
2219	1	1638	2027	
2220	1	1637	2033	
2221	1	1638	2034	
2222	1	1638	2041	
2223	1	1638	2041	
2224	1	1637	2052	
2225	1	1638	2052	
2226	1	1638	2058	
2227	1	1638	2059	
2228	1	1638	2052	
2229	1	1638	2054	
2230	1	1638	2049	
2231	1	1638	2041	
2232	1	1638	2039	
2233	1	1638	2031	
2234	1	1638	2025	
2235	1	1638	2021	
2236	1	1638	2024	
2237	1	1638	2019	
2238	1	1638	2025	
2239	1	1638	2025	
2240	1	1638	2033	
2241	1	1638	2034	
2242	1	1638	2039	
2243	1	1638	2039	
2244	1	1638	2039	
2245	1	1638	2044	
2246	1	1638	2042	
2247	1	1638	2040	
2248	1	1638	2043	
2249	1	1638	2039	
2250	1	1638	2048	
2251	1	1638	2048	
2252	1	1638	2050	
2253	1	1638	2059	
2254	1	1638	2063	
2255	1	1638	2066	
2256	1	1638	2076	
2257	1	1638	2079	
2258	1	1638	2077	
2259	1	1638	2080	
2260	1	1638	2075	
2261	1	1638	2078	
2262	1	1638	2072	
2263	1	1638	2074	
2264	1	1638	2064	
2265	1	1639	2061	
2266	1	1639	2046	
2267	1	1638	2042	
2268	1	1639	2032	
2269	1	1639	2027	
2270	1	1639	2019	
2271	1	1638	2024	
2272	1	1639	2030	
2273	1	1639	2027	
2274	1	1639	2033	
2275	1	1639	2028	
2276	1	1639	2037	
2277	1	1639	2041	
2278	1	1638	2053	
2279	1	1639	2060	
2280	1	1639	2057	
2281	1	1639	2062	
2282	1	1639	2067	
2283	1	1639	2065	
2284	1	1639	2073	
2285	1	1639	2077	
2286	1	1639	2076	
2287	1	1639	2083	
2288	1	1639	2078	
2289	1	1639	2081	
2290	1	1639	2080	
2291	1	1639	2077	
2292	1	1639	2080	
2293	1	1639	2079	
2294	1	1639	2084	
2295	1	1639	2083	
2296	1	1639	2091	
2297	1	1639	2097	
2298	1	1639	2098	
2299	1	1639	2107	
2300	1	1639	2103	
2301	1	1639	2109	
2302	1	1639	2114	
2303	1	1639	2113	
2304	1	1639	2115	
2305	1	1639	2108	
2306	1	1639	2108	
2307	1	1639	2100	
2308	1	1638	2097	
2309	1	1639	2085	
2310	1	1639	2085	
2311	1	1639	2077	
2312	1	1639	2082	
2313	1	1639	2078	
2314	1	1639	2079	
2315	1	1639	2067	
2316	1	1639	2065	
2317	1	1639	2059	
2318	1	1638	2059	
2319	1	1638	2063	
2320	1	1638	2062	
2321	1	1639	2071	
2322	1	1638	2070	
2323	1	1638	2077	
2324	1	1638	2079	
2325	1	1638	2077	
2326	1	1638	2083	
2327	1	1638	2082	
2328	1	1638	2081	
2329	1	1638	2088	
2330	1	1638	2087	
2331	1	1638	2088	
2332	1	1638	2092	
2333	1	1638	2090	
2334	1	1638	2082	
2335	1	1638	2087	
2336	1	1638	2086	
2337	1	1638	2085	
2338	1	1638	2085	
2339	1	1638	2095	
2340	1	1638	2100	
2341	1	1638	2102	
2342	1	1638	2102	
2343	1	1638	2109	
2344	1	1638	2108	
2345	1	1638	2106	
2346	1	1638	2114	
2347	1	1638	2111	
2348	1	1638	2108	
2349	1	1639	2114	
2350	1	1638	2114	
2351	1	1639	2114	
2352	1	1639	2123	
2353	1	1639	2126	
2354	1	1639	2127	
2355	1	1639	2136	
2356	1	1639	2141	
2357	1	1639	2144	
2358	1	1639	2152	
2359	1	1639	2150	
2360	1	1639	2152	
2361	1	1639	2148	
2362	1	1639	2150	
2363	1	1640	2146	
2364	1	1640	2136	
2365	1	1640	2135	
2366	1	1640	2126	
2367	1	1640	2123	
2368	1	1640	2125	
2369	1	1640	2117	
2370	1	1641	2122	
2371	1	1640	2121	
2372	1	1641	2131	
2373	1	1641	2129	
2374	1	1641	2140	
2375	1	1641	2142	
2376	1	1641	2156	
2377	1	1641	2160	
2378	1	1641	2168	
2379	1	1641	2170	
2380	1	1641	2165	
2381	1	1642	2161	
2382	1	1642	2149	
2383	1	1642	2144	
2384	1	1642	2131	
2385	1	1642	2115	
2386	1	1642	2113	
2387	1	1642	2103	
2388	1	1642	2097	
2389	1	1642	2092	
2390	1	1642	2093	
2391	1	1642	2088	
2392	1	1643	2088	
2393	1	1642	2082	
2394	1	1642	2089	
2395	1	1642	2091	
2396	1	1642	2091	
2397	1	1642	2100	
2398	1	1642	2100	
2399	1	1642	2104	
2400	1	1642	2114	
2401	1	1642	2115	
2402	1	1642	2126	
2403	1	1641	2129	
2404	1	1641	2137	
2405	1	1641	2136	
2406	1	1641	2137	
2407	1	1641	2134	
2408	1	1641	2128	
2409	1	1641	2134	
2410	1	1640	2133	
2411	1	1640	2134	
2412	1	1640	2144	
2413	1	1640	2147	
2414	1	1640	2158	
2415	1	1640	2159	
2416	1	1640	2157	
2417	1	1640	2163	
2418	1	1640	2157	
2419	1	1640	2157	
2420	1	1639	2167	
2421	1	1639	2176	
2422	1	1638	2183	
2423	1	1638	2192	
2424	1	1638	2189	
2425	1	1638	2187	
2426	1	1638	2190	
2427	1	1637	2184	
2428	1	1637	2186	
2429	1	1637	2184	
2430	1	1636	2179	
2431	1	1636	2184	
2432	1	1636	2180	
2433	1	1635	2187	
2434	1	1635	2182	
2435	1	1635	2187	
2436	1	1634	2188	
2437	1	1634	2186	
2438	1	1634	2196	
2439	1	1633	2196	
2440	1	1633	2199	
2441	1	1633	2197	
2442	1	1633	2193	
2443	1	1632	2189	
2444	1	1632	2193	
2445	1	1631	2195	
2446	1	1631	2194	
2447	1	1631	2199	
2448	1	1631	2194	
2449	1	1631	2198	
2450	1	1631	2195	
2451	1	1631	2195	
2452	1	1630	2189	
2453	1	1630	2192	
2454	1	1630	2184	
2455	1	1630	2189	
2456	1	1629	2184	
2457	1	1629	2190	
2458	1	1628	2192	
2459	1	1628	2189	
2460	1	1628	2195	
2461	1	1628	2188	
2462	1	1628	2185	
2463	1	1628	2183	
2464	1	1627	2188	
2465	1	1627	2186	
2466	1	1627	2181	
2467	1	1627	2186	
2468	1	1626	2186	
2469	1	1626	2185	
2470	1	1626	2183	
2471	1	1626	2179	
2472	1	1626	2182	
2473	1	1626	2179	
2474	1	1626	2173	
2475	1	1624	2175	
2476	1	1624	2195	
2477	1	1624	2199	
2478	1	1624	2187	
2479	1	1624	2180	
2480	1	1624	2167	
2481	1	1624	2159	
2482	1	1624	2146	
2483	1	1624	2147	
2484	1	1624	2144	
2485	1	1624	2136	
2486	1	1624	2141	
2487	1	1624	2140	
2488	1	1624	2134	
2489	1	1624	2137	
2490	1	1624	2136	
2491	1	1624	2127	
2492	1	1623	2129	
2493	1	1623	2124	
2494	1	1624	2130	
2495	1	1623	2134	
2496	1	1624	2137	
2497	1	1624	2148	
2498	1	1623	2166	
2499	1	1622	2185	
2500	1	1622	2198	
2501	1	1623	2195	
2502	1	1622	2182	
2503	1	1623	2167	
2504	1	1623	2152	
2505	1	1623	2133	
2506	1	1623	2123	
2507	1	1623	2110	
2508	1	1622	2111	
2509	1	1623	2106	
2510	1	1623	2095	
2511	1	1623	2094	
2512	1	1623	2082	
2513	1	1623	2070	
2514	1	1623	2071	
2515	1	1623	2064	
2516	1	1623	2066	
2517	1	1623	2061	
2518	1	1623	2063	
2519	1	1623	2062	
2520	1	1624	2057	
2521	1	1624	2061	
2522	1	1623	2059	
2523	1	1624	2067	
2524	1	1624	2063	
2525	1	1624	2066	
2526	1	1624	2062	
2527	1	1624	2055	
2528	1	1623	2057	
2529	1	1623	2071	
2530	1	1623	2082	
2531	1	1624	2073	
2532	1	1624	2066	
2533	1	1624	2058	
2534	1	1624	2052	
2535	1	1624	2048	
2536	1	1624	2053	
2537	1	1624	2046	
2538	1	1624	2049	
2539	1	1624	2042	
2540	1	1624	2046	
2541	1	1624	2040	
2542	1	1624	2033	
2543	1	1624	2038	
2544	1	1624	2035	
2545	1	1624	2037	
2546	1	1624	2034	
2547	1	1625	2040	
2548	1	1625	2039	
2549	1	1625	2041	
2550	1	1625	2037	
2551	1	1625	2037	
2552	1	1625	2033	
2553	1	1625	2035	
2554	1	1625	2033	
2555	1	1625	2033	
2556	1	1625	2043	
2557	1	1625	2044	
2558	1	1625	2052	
2559	1	1625	2053	
2560	1	1625	2052	
2561	1	1625	2058	
2562	1	1625	2056	
2563	1	1625	2051	
2564	1	1625	2057	
2565	1	1625	2052	
2566	1	1625	2059	
2567	1	1625	2062	
2568	1	1625	2075	
2569	1	1626	2080	
2570	1	1626	2095	
2571	1	1625	2100	
2572	1	1626	2112	
2573	1	1625	2111	
2574	1	1625	2118	
2575	1	1625	2113	
2576	1	1626	2115	
2577	1	1626	2103	
2578	1	1626	2100	
2579	1	1625	2088	
2580	1	1626	2084	
2581	1	1626	2075	
2582	1	1626	2068	
2583	1	1625	2060	
2584	1	1625	2050	
2585	1	1625	2054	
2586	1	1626	2052	
2587	1	1626	2053	
2588	1	1626	2045	
2589	1	1626	2035	
2590	1	1626	2038	
2591	1	1626	2033	
2592	1	1625	2038	
2593	1	1625	2037	
2594	1	1625	2041	
2595	1	1626	2035	
2596	1	1625	2036	
2597	1	1625	2029	
2598	1	1626	2032	
2599	1	1626	2025	
2600	1	1626	2028	
2601	1	1625	2028	
2602	1	1625	2034	
2603	1	1625	2031	
2604	1	1626	2039	
2605	1	1626	2036	
2606	1	1626	2041	
2607	1	1626	2041	
2608	1	1626	2038	
2609	1	1626	2044	
2610	1	1626	2039	
2611	1	1626	2043	
2612	1	1626	2041	
2613	1	1626	2050	
2614	1	1626	2048	
2615	1	1626	2056	
2616	1	1626	2050	
2617	1	1626	2048	
2618	1	1626	2035	
2619	1	1626	2031	
2620	1	1626	2022	
2621	1	1626	2015	
2622	1	1626	2002	
2623	1	1626	1990	
2624	1	1626	1990	
2625	1	1626	1983	
2626	1	1626	1988	
2627	1	1626	1989	
2628	1	1626	2005	
2629	1	1626	2006	
2630	1	1626	2012	
2631	1	1626	2011	
2632	1	1626	2008	
2633	1	1626	2012	
2634	1	1626	2009	
2635	1	1626	2015	
2636	1	1626	2016	
2637	1	1626	2021	
2638	1	1626	2030	
2639	1	1626	2031	
2640	1	1627	2039	
2641	1	1626	2034	
2642	1	1626	2036	
2643	1	1626	2029	
2644	1	1626	2031	
2645	1	1626	2023	
2646	1	1626	2024	
2647	1	1626	2020	
2648	1	1626	2017	
2649	1	1626	2024	
2650	1	1626	2025	
2651	1	1626	2034	
2652	1	1626	2032	
2653	1	1626	2038	
2654	1	1626	2033	
2655	1	1626	2041	
2656	1	1626	2043	
2657	1	1626	2050	
2658	1	1626	2049	
2659	1	1626	2057	
2660	1	1626	2054	
2661	1	1625	2063	
2662	1	1626	2064	
2663	1	1626	2079	
2664	1	1626	2091	
2665	1	1625	2103	
2666	1	1625	2107	
2667	1	1625	2113	
2668	1	1625	2118	
2669	1	1625	2127	
2670	1	1625	2135	
2671	1	1625	2141	
2672	1	1625	2151	
2673	1	1625	2158	
2674	1	1624	2161	
2675	1	1624	2175	
2676	1	1624	2178	
2677	1	1624	2193	
2678	1	1624	2197	
2679	1	1624	2210	
2680	1	1623	2215	
2681	1	1623	2221	
2682	1	1623	2223	
2683	1	1623	2233	
2684	1	1622	2245	
2685	1	1622	2245	
2686	1	1622	2255	
2687	1	1622	2258	
2688	1	1621	2263	
2689	1	1621	2265	
2690	1	1620	2277	
2691	1	1620	2290	
2692	1	1620	2303	
2693	1	1620	2309	
2694	1	1620	2319	
2695	1	1619	2328	
2696	1	1619	2329	
2697	1	1619	2344	
2698	1	1619	2352	
2699	1	1618	2375	
2700	1	1618	2393	
2701	1	1618	2411	
2702	1	1618	2429	
2703	1	1617	2445	
2704	1	1617	2458	
2705	1	1617	2473	
2706	1	1617	2481	
2707	1	1617	2501	
2708	1	1617	2518	
2709	1	1617	2535	
2710	1	1617	2565	
2711	1	1617	2580	
2712	1	1616	2590	
2713	1	1617	2594	
2714	1	1617	2590	
2715	1	1617	2596	
2716	1	1616	2596	
2717	1	1616	2593	
2718	1	1616	2578	
2719	1	1616	2549	
2720	1	1616	2522	
2721	1	1616	2481	
2722	1	1616	2426	
2723	1	1616	2377	
2724	1	1615	2324	
2725	1	1615	2274	
2726	1	1615	2240	
2727	1	1615	2208	
2728	1	1615	2191	
2729	1	1615	2171	
2730	1	1615	2145	
2731	1	1615	2126	
2732	1	1614	2106	
2733	1	1615	2087	
2734	1	1615	2075	
2735	1	1614	2063	
2736	1	1614	2061	
2737	1	1614	2061	
2738	1	1614	2060	
2739	1	1613	2070	
2740	1	1613	2070	
2741	1	1613	2075	
2742	1	1613	2074	
2743	1	1613	2069	
2744	1	1613	2074	
2745	1	1613	2068	
2746	1	1613	2069	
2747	1	1613	2061	
2748	1	1613	2062	
2749	1	1613	2056	
2750	1	1613	2056	
2751	1	1613	2046	
2752	1	1613	2044	
2753	1	1613	2033	
2754	1	1612	2038	
2755	1	1613	2033	
2756	1	1612	2038	
2757	1	1612	2031	
2758	1	1612	2033	
2759	1	1612	2026	
2760	1	1612	2029	
2761	1	1612	2028	
2762	1	1612	2022	
2763	1	1612	2028	
2764	1	1612	2028	
2765	1	1612	2025	
2766	1	1612	2034	
2767	1	1612	2035	
2768	1	1612	2039	
2769	1	1612	2030	
2770	1	1612	2028	
2771	1	1612	2021	
2772	1	1612	2009	
2773	1	1612	2011	
2774	1	1612	2009	
2775	1	1612	2006	
2776	1	1612	2013	
2777	1	1612	2012	
2778	1	1612	2020	
2779	1	1612	2016	
2780	1	1613	1997	
2781	1	1612	1972	
2782	1	1613	1957	
2783	1	1612	1947	
2784	1	1612	1947	
2785	1	1612	1935	
2786	1	1612	1930	
2787	1	1613	1917	
2788	1	1613	1911	
2789	1	1613	1906	
2790	1	1613	1905	
2791	1	1613	1901	
2792	1	1613	1884	
2793	1	1613	1879	
2794	1	1613	1866	
2795	1	1613	1863	
2796	1	1613	1854	
2797	1	1613	1852	
2798	1	1613	1855	
2799	1	1613	1853	
2800	1	1613	1846	
2801	1	1613	1831	
2802	1	1613	1826	
2803	1	1614	1808	
2804	1	1613	1784	
2805	1	1614	1767	
2806	1	1614	1754	
2807	1	1614	1753	
2808	1	1614	1749	
2809	1	1614	1747	
2810	1	1614	1746	
2811	1	1614	1745	
2812	1	1614	1748	
2813	1	1614	1747	
2814	1	1614	1749	
2815	1	1614	1740	
2816	1	1615	1741	
2817	1	1615	1732	
2818	1	1615	1732	
2819	1	1615	1725	
2820	1	1615	1723	
2821	1	1615	1715	
2822	1	1615	1712	
2823	1	1615	1705	
2824	1	1615	1702	
2825	1	1616	1702	
2826	1	1616	1695	
2827	1	1616	1692	
2828	1	1616	1690	
2829	1	1616	1679	
2830	1	1616	1671	
2831	1	1617	1657	
2832	1	1616	1656	
2833	1	1616	1650	
2834	1	1617	1649	
2835	1	1617	1643	
2836	1	1617	1646	
2837	1	1617	1644	
2838	1	1617	1646	
2839	1	1618	1644	
2840	1	1618	1635	
2841	1	1618	1632	
2842	1	1618	1627	
2843	1	1618	1631	
2844	1	1618	1627	
2845	1	1619	1625	
2846	1	1619	1619	
2847	1	1619	1620	
2848	1	1619	1617	
2849	1	1619	1622	
2850	1	1619	1621	
2851	1	1620	1621	
2852	1	1620	1611	
2853	1	1620	1609	
2854	1	1620	1605	
2855	1	1620	1604	
2856	1	1621	1596	
2857	1	1621	1596	
2858	1	1621	1591	
2859	1	1621	1584	
2860	1	1622	1572	
2861	1	1622	1570	
2862	1	1622	1563	
2863	1	1623	1562	
2864	1	1623	1559	
2865	1	1623	1563	
2866	1	1624	1564	
2867	1	1624	1567	
2868	1	1624	1573	
2869	1	1624	1574	
2870	1	1624	1579	
2871	1	1625	1579	
2872	1	1625	1584	
2873	1	1625	1585	
2874	1	1626	1589	
2875	1	1626	1594	
2876	1	1626	1607	
2877	1	1627	1620	
2878	1	1627	1637	
2879	1	1627	1647	
2880	1	1628	1645	
2881	1	1628	1628	
2882	1	1628	1608	
2883	1	1629	1596	
2884	1	1629	1596	
2885	1	1629	1608	
2886	1	1629	1615	
2887	1	1630	1616	
2888	1	1630	1615	
2889	1	1630	1608	
2890	1	1630	1608	
2891	1	1630	1605	
2892	1	1631	1608	
2893	1	1631	1607	
2894	1	1632	1604	
2895	1	1632	1609	
2896	1	1632	1616	
2897	1	1632	1625	
2898	1	1632	1630	
2899	1	1633	1637	
2900	1	1633	1638	
2901	1	1633	1638	
2902	1	1633	1641	
2903	1	1634	1639	
2904	1	1633	1645	
2905	1	1634	1649	
2906	1	1634	1644	
2907	1	1634	1631	
2908	1	1634	1622	
2909	1	1635	1621	
2910	1	1635	1621	
2911	1	1636	1620	
2912	1	1635	1610	
2913	1	1636	1605	
2914	1	1636	1600	
2915	1	1636	1599	
2916	1	1636	1601	
2917	1	1637	1603	
2918	1	1637	1612	
2919	1	1637	1621	
2920	1	1637	1630	
2921	1	1637	1630	
2922	1	1638	1631	
2923	1	1638	1624	
2924	1	1638	1616	
2925	1	1638	1598	
2926	1	1638	1583	
2927	1	1638	1571	
2928	1	1639	1561	
2929	1	1639	1554	
2930	1	1639	1545	
2931	1	1640	1539	
2932	1	1639	1532	
2933	1	1640	1532	
2934	1	1640	1528	
2935	1	1640	1525	
2936	1	1640	1523	
2937	1	1640	1520	
2938	1	1640	1518	
2939	1	1640	1521	
2940	1	1641	1527	
2941	1	1641	1535	
2942	1	1641	1540	
2943	1	1641	1538	
2944	1	1641	1539	
2945	1	1641	1545	
2946	1	1641	1552	
2947	1	1642	1564	
2948	1	1642	1569	
2949	1	1642	1571	
2950	1	1642	1573	
2951	1	1643	1570	
2952	1	1643	1567	
2953	1	1643	1564	
2954	1	1643	1564	
2955	1	1643	1563	
2956	1	1643	1561	
2957	1	1643	1564	
2958	1	1643	1567	
2959	1	1643	1575	
2960	1	1643	1584	
2961	1	1643	1596	
2962	1	1644	1608	
2963	1	1643	1625	
2964	1	1644	1643	
2965	1	1644	1654	
2966	1	1644	1661	
2967	1	1644	1659	
2968	1	1644	1659	
2969	1	1644	1656	
2970	1	1644	1660	
2971	1	1644	1660	
2972	1	1644	1664	
2973	1	1644	1672	
2974	1	1644	1681	
2975	1	1644	1692	
2976	1	1645	1694	
2977	1	1645	1690	
2978	1	1645	1677	
2979	1	1644	1676	
2980	1	1645	1682	
2981	1	1645	1693	
2982	1	1645	1691	
2983	1	1645	1688	
2984	1	1645	1688	
2985	1	1645	1699	
2986	1	1645	1717	
2987	1	1645	1736	
2988	1	1645	1752	
2989	1	1645	1760	
2990	1	1645	1762	
2991	1	1645	1771	
2992	1	1645	1782	
2993	1	1645	1801	
2994	1	1645	1810	
2995	1	1645	1816	
2996	1	1645	1813	
2997	1	1645	1812	
2998	1	1645	1821	
2999	1	1645	1830	
3000	1	1646	1842	
3001	1	1646	1848	
3002	1	1645	1849	
3003	1	1646	1865	
3004	1	1646	1880	
3005	1	1646	1904	
3006	1	1646	1914	
3007	1	1646	1906	
3008	1	1646	1909	
3009	1	1646	1915	
3010	1	1646	1934	
3011	1	1646	1944	
3012	1	1646	1956	
3013	1	1646	1963	
3014	1	1646	1974	
3015	1	1646	1978	
3016	1	1647	1989	
3017	1	1646	1990	
3018	1	1646	2001	
3019	1	1647	2006	
3020	1	1647	2021	
3021	1	1646	2032	
3022	1	1647	2041	
3023	1	1647	2054	
3024	1	1647	2063	
3025	1	1647	2078	
3026	1	1647	2083	
3027	1	1647	2097	
3028	1	1647	2101	
3029	1	1646	2115	
3030	1	1646	2116	
3031	1	1646	2128	
3032	1	1646	2129	
3033	1	1647	2140	
3034	1	1647	2140	
3035	1	1647	2154	
3036	1	1647	2162	
3037	1	1647	2181	
3038	1	1647	2190	
3039	1	1647	2206	
3040	1	1647	2216	
3041	1	1647	2236	
3042	1	1647	2245	
3043	1	1647	2260	
3044	1	1647	2267	
3045	1	1647	2278	
3046	1	1647	2281	
3047	1	1647	2300	
3048	1	1647	2312	
3049	1	1647	2330	
3050	1	1647	2341	
3051	1	1647	2359	
3052	1	1647	2359	
3053	1	1647	2359	
3054	1	1647	2349	
3055	1	1647	2351	
3056	1	1647	2351	
3057	1	1647	2349	
3058	1	1647	2346	
3059	1	1647	2350	
3060	1	1647	2341	
3061	1	1647	2337	
3062	1	1647	2336	
3063	1	1647	2332	
3064	1	1647	2339	
3065	1	1647	2340	
3066	1	1646	2333	
3067	1	1647	2338	
3068	1	1647	2339	
3069	1	1647	2339	
3070	1	1647	2342	
3071	1	1647	2341	
3072	1	1646	2337	
3073	1	1647	2337	
3074	1	1647	2340	
3075	1	1647	2341	
3076	1	1647	2341	
3077	1	1647	2335	
3078	1	1647	2335	
3079	1	1647	2331	
3080	1	1647	2328	
3081	1	1647	2329	
3082	1	1646	2330	
3083	1	1647	2322	
3084	1	1647	2323	
3085	1	1647	2311	
3086	1	1647	2313	
3087	1	1646	2304	
3088	1	1647	2306	
3089	1	1647	2296	
3090	1	1647	2298	
3091	1	1647	2292	
3092	1	1647	2282	
3093	1	1647	2284	
3094	1	1647	2281	
3095	1	1647	2272	
3096	1	1646	2269	
3097	1	1647	2259	
3098	1	1647	2264	
3099	1	1646	2263	
3100	1	1647	2251	
3101	1	1646	2243	
3102	1	1646	2238	
3103	1	1647	2238	
3104	1	1647	2234	
3105	1	1646	2231	
3106	1	1646	2233	
3107	1	1646	2224	
3108	1	1646	2224	
3109	1	1646	2221	
3110	1	1646	2213	
3111	1	1646	2213	
3112	1	1646	2205	
3113	1	1646	2208	
3114	1	1646	2214	
3115	1	1646	2209	
3116	1	1646	2213	
3117	1	1646	2214	
3118	1	1646	2206	
3119	1	1646	2204	
3120	1	1646	2197	
3121	1	1646	2206	
3122	1	1646	2211	
3123	1	1646	2206	
3124	1	1646	2206	
3125	1	1646	2203	
3126	1	1646	2212	
3127	1	1646	2212	
3128	1	1646	2219	
3129	1	1646	2221	
3130	1	1646	2233	
3131	1	1646	2237	
3132	1	1645	2233	
3133	1	1646	2229	
3134	1	1645	2223	
3135	1	1645	2230	
3136	1	1645	2228	
3137	1	1645	2239	
3138	1	1645	2238	
3139	1	1645	2242	
3140	1	1645	2235	
3141	1	1645	2236	
3142	1	1645	2236	
3143	1	1645	2245	
3144	1	1645	2247	
3145	1	1645	2255	
3146	1	1645	2255	
3147	1	1645	2254	
3148	1	1645	2262	
3149	1	1644	2262	
3150	1	1645	2262	
3151	1	1644	2261	
3152	1	1645	2264	
3153	1	1644	2273	
3154	1	1644	2276	
3155	1	1645	2287	
3156	1	1644	2290	
3157	1	1644	2291	
3158	1	1644	2283	
3159	1	1644	2285	
3160	1	1644	2283	
3161	1	1644	2282	
3162	1	1644	2285	
3163	1	1644	2287	
3164	1	1644	2296	
3165	1	1644	2299	
3166	1	1644	2302	
3167	1	1644	2304	
3168	1	1644	2301	
3169	1	1644	2312	
3170	1	1644	2319	
3171	1	1644	2319	
3172	1	1644	2327	
3173	1	1644	2331	
3174	1	1644	2333	
3175	1	1644	2337	
3176	1	1644	2342	
3177	1	1644	2348	
3178	1	1644	2354	
3179	1	1644	2356	
3180	1	1644	2359	
3181	1	1644	2365	
3182	1	1644	2365	
3183	1	1644	2377	
3184	1	1644	2372	
3185	1	1644	2373	
3186	1	1644	2366	
3187	1	1643	2362	
3188	1	1643	2364	
3189	1	1643	2362	
3190	1	1643	2365	
3191	1	1644	2357	
3192	1	1643	2361	
3193	1	1643	2357	
3194	1	1644	2360	
3195	1	1643	2355	
3196	1	1643	2360	
3197	1	1643	2356	
3198	1	1643	2364	
3199	1	1643	2369	
3200	1	1643	2381	
3201	1	1643	2391	
3202	1	1643	2392	
3203	1	1643	2403	
3204	1	1643	2415	
3205	1	1643	2432	
3206	1	1644	2445	
3207	1	1643	2457	
3208	1	1643	2467	
3209	1	1643	2471	
3210	1	1643	2483	
3211	1	1644	2484	
3212	1	1644	2495	
3213	1	1644	2498	
3214	1	1644	2513	
3215	1	1645	2519	
3216	1	1644	2534	
3217	1	1645	2533	
3218	1	1645	2540	
3219	1	1645	2539	
3220	1	1645	2546	
3221	1	1645	2539	
3222	1	1645	2538	
3223	1	1645	2527	
3224	1	1646	2515	
3225	1	1646	2489	
3226	1	1646	2457	
3227	1	1646	2427	
3228	1	1646	2381	
3229	1	1646	2342	
3230	1	1646	2298	
3231	1	1645	2275	
3232	1	1646	2256	
3233	1	1646	2238	
3234	1	1645	2233	
3235	1	1645	2222	
3236	1	1645	2219	
3237	1	1645	2211	
3238	1	1645	2213	
3239	1	1645	2212	
3240	1	1645	2215	
3241	1	1645	2212	
3242	1	1645	2206	
3243	1	1645	2205	
3244	1	1645	2200	
3245	1	1645	2198	
3246	1	1645	2194	
3247	1	1645	2199	
3248	1	1645	2191	
3249	1	1645	2195	
3250	1	1645	2194	
3251	1	1645	2196	
3252	1	1645	2192	
3253	1	1645	2192	
3254	1	1645	2191	
3255	1	1645	2184	
3256	1	1645	2184	
3257	1	1645	2183	
3258	1	1645	2182	
3259	1	1645	2176	
3260	1	1645	2177	
3261	1	1645	2173	
3262	1	1645	2172	
3263	1	1645	2181	
3264	1	1645	2196	
3265	1	1645	2205	
3266	1	1645	2200	
3267	1	1645	2172	
3268	1	1645	2147	
3269	1	1645	2136	
3270	1	1645	2129	
3271	1	1645	2138	
3272	1	1645	2143	
3273	1	1645	2144	
3274	1	1645	2148	
3275	1	1645	2156	
3276	1	1645	2155	
3277	1	1645	2164	
3278	1	1645	2164	
3279	1	1645	2163	
3280	1	1645	2169	
3281	1	1645	2163	
3282	1	1645	2162	
3283	1	1645	2166	
3284	1	1645	2163	
3285	1	1645	2159	
3286	1	1645	2155	
3287	1	1645	2161	
3288	1	1645	2166	
3289	1	1645	2163	
3290	1	1645	2162	
3291	1	1646	2151	
3292	1	1645	2140	
3293	1	1645	2135	
3294	1	1645	2125	
3295	1	1645	2122	
3296	1	1645	2121	
3297	1	1645	2122	
3298	1	1645	2124	
3299	1	1645	2127	
3300	1	1645	2125	
3301	1	1645	2114	
3302	1	1645	2112	
3303	1	1646	2107	
3304	1	1645	2097	
3305	1	1646	2099	
3306	1	1646	2096	
3307	1	1646	2086	
3308	1	1646	2088	
3309	1	1646	2080	
3310	1	1646	2080	
3311	1	1646	2076	
3312	1	1646	2067	
3313	1	1646	2067	
3314	1	1646	2056	
3315	1	1646	2056	
3316	1	1646	2048	
3317	1	1646	2053	
3318	1	1646	2050	
3319	1	1646	2058	
3320	1	1646	2053	
3321	1	1646	2058	
3322	1	1646	2058	
3323	1	1646	2070	
3324	1	1646	2067	
3325	1	1647	2074	
3326	1	1647	2072	
3327	1	1647	2070	
3328	1	1647	2062	
3329	1	1647	2055	
3330	1	1648	2054	
3331	1	1647	2041	
3332	1	1647	2034	
3333	1	1648	2017	
3334	1	1648	2005	
3335	1	1648	1999	
3336	1	1648	1992	
3337	1	1648	1986	
3338	1	1648	1989	
3339	1	1648	1986	
3340	1	1648	1995	
3341	1	1648	1998	
3342	1	1648	1995	
3343	1	1648	2003	
3344	1	1648	2004	
3345	1	1649	2013	
3346	1	1649	2014	
3347	1	1649	2008	
3348	1	1649	2006	
3349	1	1649	2005	
3350	1	1649	2005	
3351	1	1649	2004	
3352	1	1649	2008	
3353	1	1649	1998	
3354	1	1649	1994	
3355	1	1649	1987	
3356	1	1649	1980	
3357	1	1649	1987	
3358	1	1649	1983	
3359	1	1649	1987	
3360	1	1650	1976	
3361	1	1650	1967	
3362	1	1649	1963	
3363	1	1650	1956	
3364	1	1650	1958	
3365	1	1650	1954	
3366	1	1650	1956	
3367	1	1650	1961	
3368	1	1650	1965	
3369	1	1650	1973	
3370	1	1650	1971	
3371	1	1650	1978	
3372	1	1650	1987	
3373	1	1650	2007	
3374	1	1650	2037	
3375	1	1650	2051	
3376	1	1650	2072	
3377	1	1650	2076	
3378	1	1650	2081	
3379	1	1650	2093	
3380	1	1650	2104	
3381	1	1651	2114	
3382	1	1651	2113	
3383	1	1651	2126	
3384	1	1651	2124	
3385	1	1651	2124	
3386	1	1651	2109	
3387	1	1651	2092	
3388	1	1651	2064	
3389	1	1651	2045	
3390	1	1652	2023	
3391	1	1652	2006	
3392	1	1652	1988	
3393	1	1652	1973	
3394	1	1652	1980	
3395	1	1652	1993	
3396	1	1652	1991	
3397	1	1652	2000	
3398	1	1652	2004	
3399	1	1652	2013	
3400	1	1652	2028	
3401	1	1652	2037	
3402	1	1652	2036	
3403	1	1652	2044	
3404	1	1652	2040	
3405	1	1651	2042	
3406	1	1652	2045	
3407	1	1652	2043	
3408	1	1652	2043	
3409	1	1652	2037	
3410	1	1652	2039	
3411	1	1652	2042	
3412	1	1652	2040	
3413	1	1652	2045	
3414	1	1652	2051	
3415	1	1652	2057	
3416	1	1652	2052	
3417	1	1652	2043	
3418	1	1652	2040	
3419	1	1652	2034	
3420	1	1652	2048	
3421	1	1652	2065	
3422	1	1652	2083	
3423	1	1652	2073	
3424	1	1652	2075	
3425	1	1653	2072	
3426	1	1653	2073	
3427	1	1653	2053	
3428	1	1653	2037	
3429	1	1653	2013	
3430	1	1653	2001	
3431	1	1653	1986	
3432	1	1653	1984	
3433	1	1653	1979	
3434	1	1653	1979	
3435	1	1653	1964	
3436	1	1653	1955	
3437	1	1653	1944	
3438	1	1653	1954	
3439	1	1653	1959	
3440	1	1653	1973	
3441	1	1653	1975	
3442	1	1653	1984	
3443	1	1653	1982	
3444	1	1653	1988	
3445	1	1653	1985	
3446	1	1653	1990	
3447	1	1653	1987	
3448	1	1653	1992	
3449	1	1653	1999	
3450	1	1653	1999	
3451	1	1652	2005	
3452	1	1653	2005	
3453	1	1653	2012	
3454	1	1653	2009	
3455	1	1652	2015	
3456	1	1652	2018	
3457	1	1652	2020	
3458	1	1652	2027	
3459	1	1652	2024	
3460	1	1652	2029	
3461	1	1652	2026	
3462	1	1652	2033	
3463	1	1652	2032	
3464	1	1652	2037	
3465	1	1652	2032	
3466	1	1652	2036	
3467	1	1652	2028	
3468	1	1652	2032	
3469	1	1652	2026	
3470	1	1652	2031	
3471	1	1652	2026	
3472	1	1652	2031	
3473	1	1652	2027	
3474	1	1651	2037	
3475	1	1652	2037	
3476	1	1652	2045	
3477	1	1652	2048	
3478	1	1651	2050	
3479	1	1652	2055	
3480	1	1651	2058	
3481	1	1652	2059	
3482	1	1651	2054	
3483	1	1652	2057	
3484	1	1652	2051	
3485	1	1652	2058	
3486	1	1652	2056	
3487	1	1652	2052	
3488	1	1652	2057	
3489	1	1651	2055	
3490	1	1652	2048	
3491	1	1652	2049	
3492	1	1651	2039	
3493	1	1651	2039	
3494	1	1651	2029	
3495	1	1652	2028	
3496	1	1651	2020	
3497	1	1651	2015	
3498	1	1651	2022	
3499	1	1651	2018	
3500	1	1651	2026	
3501	1	1651	2032	
3502	1	1651	2038	
3503	1	1651	2043	
3504	1	1651	2047	
3505	1	1651	2055	
3506	1	1651	2054	
3507	1	1651	2056	
3508	1	1651	2048	
3509	1	1651	2048	
3510	1	1651	2036	
3511	1	1651	2035	
3512	1	1651	2024	
3513	1	1651	2021	
3514	1	1651	2019	
3515	1	1651	2013	
3516	1	1651	2016	
3517	1	1651	2009	
3518	1	1651	2011	
3519	1	1651	2008	
3520	1	1651	2014	
3521	1	1651	2013	
3522	1	1651	2021	
3523	1	1651	2021	
3524	1	1651	2016	
3525	1	1651	2021	
3526	1	1651	2016	
3527	1	1651	2011	
3528	1	1651	2016	
3529	1	1651	2014	
3530	1	1651	2013	
3531	1	1651	2016	
3532	1	1651	2010	
3533	1	1651	2011	
3534	1	1651	2005	
3535	1	1651	2008	
3536	1	1651	2007	
3537	1	1651	2005	
3538	1	1651	2013	
3539	1	1651	2014	
3540	1	1651	2016	
3541	1	1650	2024	
3542	1	1650	2024	
3543	1	1650	2024	
3544	1	1650	2030	
3545	1	1650	2031	
3546	1	1650	2029	
3547	1	1650	2025	
3548	1	1650	2030	
3549	1	1650	2028	
3550	1	1650	2024	
3551	1	1650	2021	
3552	1	1650	2026	
3553	1	1650	2024	
3554	1	1650	2026	
3555	1	1650	2030	
3556	1	1650	2036	
3557	1	1650	2034	
3558	1	1650	2034	
3559	1	1650	2036	
3560	1	1650	2033	
3561	1	1650	2039	
3562	1	1650	2040	
3563	1	1650	2036	
3564	1	1650	2040	
3565	1	1650	2034	
3566	1	1650	2035	
3567	1	1650	2030	
3568	1	1650	2026	
3569	1	1650	2021	
3570	1	1650	2025	
3571	1	1650	2021	
3572	1	1650	2012	
3573	1	1650	2014	
3574	1	1650	2011	
3575	1	1650	2006	
3576	1	1650	2008	
3577	1	1650	1997	
3578	1	1650	1994	
3579	1	1650	2002	
3580	1	1650	2002	
3581	1	1650	1996	
3582	1	1650	2000	
3583	1	1650	2008	
3584	1	1650	2025	
3585	1	1650	2051	
3586	1	1650	2059	
3587	1	1650	2067	
3588	1	1651	2065	
3589	1	1651	2070	
3590	1	1650	2062	
3591	1	1651	2061	
3592	1	1650	2042	
3593	1	1651	2032	
3594	1	1651	2013	
3595	1	1651	2006	
3596	1	1651	1990	
3597	1	1651	1988	
3598	1	1651	1982	
3599	1	1651	1977	
3600	1	1651	1980	
3601	1	1651	1973	
3602	1	1651	1968	
3603	1	1650	1972	
3604	1	1651	1970	
3605	1	1651	1969	
3606	1	1651	1976	
3607	1	1651	1972	
3608	1	1651	1977	
3609	1	1651	1971	
3610	1	1651	1961	
3611	1	1651	1962	
3612	1	1650	1961	
3613	1	1651	1964	
3614	1	1651	1971	
3615	1	1651	1971	
3616	1	1651	1981	
3617	1	1651	1988	
3618	1	1651	1989	
3619	1	1651	1996	
3620	1	1651	1994	
3621	1	1651	1993	
3622	1	1651	1993	
3623	1	1651	1987	
3624	1	1651	1990	
3625	1	1651	1987	
3626	1	1651	1983	
3627	1	1651	1988	
3628	1	1651	1982	
3629	1	1651	1979	
3630	1	1651	1980	
3631	1	1651	1976	
3632	1	1651	1973	
3633	1	1651	1982	
3634	1	1651	1979	
3635	1	1651	1982	
3636	1	1651	1978	
3637	1	1651	1973	
3638	1	1651	1977	
3639	1	1651	1972	
3640	1	1651	1980	
3641	1	1651	1981	
3642	1	1651	1981	
3643	1	1651	1981	
3644	1	1651	1989	
3645	1	1652	1989	
3646	1	1651	1984	
3647	1	1652	1986	
3648	1	1651	1982	
3649	1	1651	1974	
3650	1	1651	1972	
3651	1	1652	1974	
3652	1	1652	1969	
3653	1	1652	1971	
3654	1	1652	1968	
3655	1	1652	1969	
3656	1	1652	1963	
3657	1	1651	1969	
3658	1	1652	1968	
3659	1	1652	1974	
3660	1	1652	1978	
3661	1	1652	1975	
3662	1	1652	1977	
3663	1	1652	1985	
3664	1	1652	1985	
3665	1	1652	1998	
3666	1	1652	2000	
3667	1	1652	2003	
3668	1	1652	2007	
3669	1	1652	2003	
3670	1	1652	2011	
3671	1	1652	2007	
3672	1	1652	2008	
3673	1	1652	2009	
3674	1	1652	2001	
3675	1	1652	2002	
3676	1	1652	1994	
3677	1	1652	1991	
3678	1	1652	1994	
3679	1	1652	1993	
3680	1	1652	2001	
3681	1	1652	1998	
3682	1	1652	2003	
3683	1	1652	2000	
3684	1	1652	1996	
3685	1	1652	1991	
3686	1	1652	1989	
3687	1	1652	1989	
3688	1	1652	1982	
3689	1	1652	1988	
3690	1	1652	1987	
3691	1	1652	1993	
3692	1	1652	1993	
3693	1	1652	2004	
3694	1	1652	2006	
3695	1	1652	2020	
3696	1	1652	2023	
3697	1	1652	2038	
3698	1	1652	2045	
3699	1	1652	2058	
3700	1	1652	2075	
3701	1	1652	2083	
3702	1	1652	2085	
3703	1	1653	2102	
3704	1	1653	2113	
3705	1	1653	2123	
3706	1	1653	2137	
3707	1	1653	2149	
3708	1	1654	2158	
3709	1	1654	2180	
3710	1	1654	2196	
3711	1	1654	2211	
3712	1	1654	2235	
3713	1	1654	2256	
3714	1	1655	2271	
3715	1	1654	2290	
3716	1	1655	2300	
3717	1	1655	2303	
3718	1	1655	2309	
3719	1	1655	2311	
3720	1	1656	2306	
3721	1	1656	2305	
3722	1	1656	2297	
3723	1	1656	2279	
3724	1	1656	2253	
3725	1	1656	2228	
3726	1	1656	2194	
3727	1	1656	2150	
3728	1	1656	2104	
3729	1	1656	2055	
3730	1	1656	2019	
3731	1	1656	1997	
3732	1	1656	1979	
3733	1	1656	1975	
3734	1	1656	1965	
3735	1	1656	1968	
3736	1	1656	1965	
3737	1	1656	1967	
3738	1	1656	1966	
3739	1	1656	1965	
3740	1	1656	1970	
3741	1	1656	1971	
3742	1	1656	1979	
3743	1	1656	1976	
3744	1	1656	1981	
3745	1	1656	1979	
3746	1	1656	1993	
3747	1	1656	2002	
3748	1	1655	2004	
3749	1	1656	2013	
3750	1	1655	2020	
3751	1	1655	2035	
3752	1	1655	2035	
3753	1	1655	2043	
3754	1	1656	2037	
3755	1	1655	2041	
3756	1	1655	2041	
3757	1	1655	2034	
3758	1	1655	2032	
3759	1	1656	2024	
3760	1	1655	2019	
3761	1	1655	2016	
3762	1	1655	2005	
3763	1	1655	2008	
3764	1	1655	2003	
3765	1	1655	2005	
3766	1	1655	2004	
3767	1	1655	2005	
3768	1	1655	2000	
3769	1	1655	1995	
3770	1	1655	2004	
3771	1	1655	2006	
3772	1	1655	2007	
3773	1	1655	2016	
3774	1	1655	2016	
3775	1	1655	2012	
3776	1	1655	2012	
3777	1	1655	2005	
3778	1	1655	2005	
3779	1	1655	2016	
3780	1	1655	2021	
3781	1	1655	2021	
3782	1	1655	2031	
3783	1	1655	2032	
3784	1	1655	2027	
3785	1	1655	2031	
3786	1	1655	2028	
3787	1	1655	2025	
3788	1	1655	2032	
3789	1	1655	2030	
3790	1	1655	2033	
3791	1	1655	2031	
3792	1	1655	2028	
3793	1	1655	2040	
3794	1	1655	2039	
3795	1	1655	2035	
3796	1	1655	2040	
3797	1	1655	2042	
3798	1	1655	2041	
3799	1	1655	2047	
3800	1	1655	2044	
3801	1	1655	2037	
3802	1	1655	2032	
3803	1	1655	2044	
3804	1	1655	2048	
3805	1	1655	2045	
3806	1	1655	2035	
3807	1	1655	2033	
3808	1	1655	2028	
3809	1	1655	2037	
3810	1	1655	2028	
3811	1	1655	2030	
3812	1	1656	2026	
3813	1	1655	2030	
3814	1	1655	2036	
3815	1	1655	2029	
3816	1	1655	2031	
3817	1	1655	2025	
3818	1	1655	2026	
3819	1	1655	2037	
3820	1	1655	2041	
3821	1	1655	2048	
3822	1	1655	2044	
3823	1	1656	2036	
3824	1	1655	2033	
3825	1	1655	2022	
3826	1	1655	2020	
3827	1	1655	2022	
3828	1	1655	2044	
3829	1	1655	2051	
3830	1	1655	2054	
3831	1	1655	2047	
3832	1	1655	2034	
3833	1	1655	2035	
3834	1	1655	2030	
3835	1	1655	2038	
3836	1	1655	2039	
3837	1	1655	2045	
3838	1	1655	2042	
3839	1	1655	2036	
3840	1	1655	2036	
3841	1	1655	2028	
3842	1	1655	2018	
3843	1	1655	2017	
3844	1	1655	2010	
3845	1	1655	2012	
3846	1	1655	2020	
3847	1	1655	2031	
3848	1	1655	2031	
3849	1	1655	2041	
3850	1	1655	2045	
3851	1	1655	2051	
3852	1	1655	2065	
3853	1	1655	2076	
3854	1	1655	2087	
3855	1	1655	2085	
3856	1	1655	2083	
3857	1	1655	2074	
3858	1	1655	2069	
3859	1	1655	2071	
3860	1	1655	2063	
3861	1	1655	2066	
3862	1	1655	2062	
3863	1	1655	2058	
3864	1	1655	2065	
3865	1	1655	2062	
3866	1	1655	2054	
3867	1	1655	2054	
3868	1	1656	2050	
3869	1	1656	2046	
3870	1	1655	2044	
3871	1	1656	2045	
3872	1	1656	2039	
3873	1	1656	2034	
3874	1	1656	2036	
3875	1	1656	2027	
3876	1	1656	2019	
3877	1	1656	2016	
3878	1	1656	2020	
3879	1	1657	2020	
3880	1	1656	2023	
3881	1	1657	2028	
3882	1	1657	2033	
3883	1	1657	2038	
3884	1	1657	2036	
3885	1	1657	2043	
3886	1	1657	2051	
3887	1	1657	2055	
3888	1	1658	2066	
3889	1	1658	2067	
3890	1	1657	2074	
3891	1	1658	2102	
3892	1	1658	2114	
3893	1	1658	2100	
3894	1	1658	2079	
3895	1	1658	2060	
3896	1	1658	2052	
3897	1	1658	2060	
3898	1	1659	2058	
3899	1	1659	2066	
3900	1	1659	2067	
3901	1	1659	2061	
3902	1	1659	2065	
3903	1	1659	2064	
3904	1	1660	2058	
3905	1	1660	2059	
3906	1	1660	2061	
3907	1	1660	2058	
3908	1	1660	2054	
3909	1	1660	2052	
3910	1	1660	2050	
3911	1	1660	2061	
3912	1	1660	2082	
3913	1	1661	2089	
3914	1	1660	2078	
3915	1	1660	2080	
3916	1	1661	2082	
3917	1	1661	2079	
3918	1	1660	2067	
3919	1	1661	2068	
3920	1	1661	2068	
3921	1	1661	2077	
3922	1	1661	2072	
3923	1	1661	2067	
3924	1	1661	2048	
3925	1	1661	2039	
3926	1	1662	2034	
3927	1	1661	2028	
3928	1	1662	2042	
3929	1	1661	2054	
3930	1	1662	2049	
3931	1	1662	2031	
3932	1	1662	2017	
3933	1	1662	2004	
3934	1	1662	2010	
3935	1	1662	2022	
3936	1	1662	2029	
3937	1	1662	2021	
3938	1	1662	2021	
3939	1	1662	2009	
3940	1	1662	2002	
3941	1	1662	2002	
3942	1	1662	1999	
3943	1	1662	2007	
3944	1	1663	2013	
3945	1	1662	2009	
3946	1	1662	2008	
3947	1	1662	2012	
3948	1	1662	2009	
3949	1	1662	2009	
3950	1	1662	2017	
3951	1	1663	2012	
3952	1	1662	2000	
3953	1	1662	1993	
3954	1	1662	1984	
3955	1	1662	1985	
3956	1	1662	1998	
3957	1	1662	2000	
3958	1	1662	2003	
3959	1	1662	2013	
3960	1	1662	2008	
3961	1	1662	1996	
3962	1	1662	1989	
3963	1	1662	1989	
3964	1	1662	1985	
3965	1	1662	1979	
3966	1	1662	1967	
3967	1	1662	1965	
3968	1	1662	1957	
3969	1	1662	1963	
3970	1	1662	1978	
3971	1	1662	2014	
3972	1	1662	2046	
3973	1	1662	2047	
3974	1	1662	2021	
3975	1	1662	1996	
3976	1	1662	2011	
3977	1	1662	2021	
3978	1	1661	2006	
3979	1	1661	1996	
3980	1	1662	1987	
3981	1	1661	1964	
3982	1	1661	1949	
3983	1	1661	1936	
3984	1	1661	1932	
3985	1	1662	1916	
3986	1	1661	1909	
3987	1	1661	1913	
3988	1	1661	1905	
3989	1	1661	1907	
3990	1	1661	1899	
3991	1	1661	1896	
3992	1	1661	1896	
3993	1	1661	1891	
3994	1	1661	1896	
3995	1	1660	1895	
3996	1	1660	1903	
3997	1	1660	1905	
3998	1	1660	1918	
3999	1	1660	1918	
4000	1	1660	1927	
4001	1	1660	1927	
4002	1	1660	1922	
4003	1	1659	1926	
4004	1	1659	1926	
4005	1	1659	1934	
4006	1	1659	1938	
4007	1	1659	1936	
4008	1	1659	1936	
4009	1	1659	1933	
4010	1	1659	1934	
4011	1	1658	1945	
4012	1	1658	1946	
4013	1	1658	1951	
4014	1	1658	1957	
4015	1	1658	1958	
4016	1	1658	1959	
4017	1	1657	1960	
4018	1	1657	1970	
4019	1	1657	1973	
4020	1	1654	1970	
4021	1	1651	1962	
4022	1	1650	1946	
4023	1	1648	1941	
4024	1	1647	1934	
4025	1	1646	1932	
4026	1	1645	1942	
4027	1	1644	1944	
4028	1	1644	1940	
4029	1	1643	1947	
4030	1	1642	1950	
4031	1	1642	1954	
4032	1	1641	1965	
4033	1	1640	1967	
4034	1	1640	1976	
4035	1	1640	1974	
4036	1	1639	1982	
4037	1	1639	1984	
4038	1	1638	1984	
4039	1	1638	1993	
4040	1	1638	1996	
4041	1	1637	1997	
4042	1	1637	2004	
4043	1	1637	2002	
4044	1	1636	2003	
4045	1	1636	2012	
4046	1	1636	2016	
4047	1	1636	2035	
4048	1	1636	2042	
4049	1	1636	2047	
4050	1	1637	2075	
4051	1	1637	2097	
4052	1	1637	2121	
4053	1	1637	2136	
4054	1	1638	2133	
4055	1	1638	2111	
4056	1	1639	2093	
4057	1	1639	2095	
4058	1	1638	2080	
4059	1	1637	2067	
4060	1	1637	2041	
4061	1	1637	2029	
4062	1	1636	2012	
4063	1	1636	1995	
4064	1	1636	1987	
4065	1	1636	1970	
4066	1	1636	1961	
4067	1	1636	1944	
4068	1	1636	1950	
4069	1	1637	1959	
4070	1	1637	1967	
4071	1	1638	1976	
4072	1	1637	1972	
4073	1	1637	1972	
4074	1	1636	1960	
4075	1	1636	1950	
4076	1	1636	1949	
4077	1	1635	1938	
4078	1	1635	1936	
4079	1	1635	1927	
4080	1	1635	1922	
4081	1	1635	1925	
4082	1	1635	1923	
4083	1	1635	1916	
4084	1	1635	1917	
4085	1	1635	1908	
4086	1	1635	1916	
4087	1	1635	1916	
4088	1	1635	1928	
4089	1	1635	1931	
4090	1	1635	1935	
4091	1	1635	1924	
4092	1	1635	1919	
4093	1	1635	1921	
4094	1	1635	1927	
4095	1	1635	1921	
4096	1	1635	1906	
4097	1	1635	1904	
4098	1	1635	1895	
4099	1	1635	1895	
4100	1	1635	1885	
4101	1	1636	1887	
4102	1	1636	1890	
4103	1	1636	1902	
4104	1	1636	1897	
4105	1	1636	1896	
4106	1	1636	1885	
4107	1	1636	1880	
4108	1	1637	1870	
4109	1	1637	1868	
4110	1	1637	1864	
4111	1	1637	1851	
4112	1	1637	1847	
4113	1	1637	1832	
4114	1	1637	1813	
4115	1	1638	1794	
4116	1	1638	1776	
4117	1	1638	1758	
4118	1	1638	1737	
4119	1	1638	1717	
4120	1	1639	1687	
4121	1	1639	1663	
4122	1	1639	1634	
4123	1	1639	1605	
4124	1	1639	1566	
4125	1	1640	1527	
4126	1	1640	1481	
4127	1	1640	1423	
4128	1	1640	1351	
4129	1	1641	1261	
4130	1	1642	1144	
4131	1	1642	990	
4132	1	1643	750	
4133	1	1644	480	
4134	1	1644	328	
4135	1	1645	253	
4136	1	1646	210	
4137	1	1646	193	
4138	1	1647	185	
4139	1	1647	185	
4140	1	1648	187	
4141	1	1648	194	
4142	1	1648	197	
4143	1	1649	205	
4144	1	1649	208	
4145	1	1650	219	
4146	1	1649	223	
4147	1	1650	229	
4148	1	1649	237	
4149	1	1650	242	
4150	1	1650	250	
4151	1	1649	256	
4152	1	1649	263	
4153	1	1648	595	
4154	1	1648	955	
4155	1	1647	1281	
4156	1	1647	1562	
4157	1	1647	1804	
4158	1	1646	2009	
4159	1	1646	2182	
4160	1	1646	2335	
4161	1	1647	2455	
4162	1	1646	2561	
4163	1	1646	2637	
4164	1	1647	2696	
4165	1	1647	2733	
4166	1	1647	2760	
4167	1	1647	2791	
4168	1	1647	2814	
4169	1	1647	2833	
4170	1	1647	2852	
4171	1	1647	2868	
4172	1	1648	2873	
4173	1	1648	2871	
4174	1	1648	2877	
4175	1	1647	2880	
4176	1	1648	2887	
4177	1	1648	2888	
4178	1	1648	2893	
4179	1	1648	2892	
4180	1	1648	2889	
4181	1	1648	2888	
4182	1	1648	2892	
4183	1	1648	2886	
4184	1	1649	2884	
4185	1	1649	2880	
4186	1	1649	2886	
4187	1	1649	2886	
4188	1	1649	2893	
4189	1	1649	2907	
4190	1	1650	2912	
4191	1	1650	2913	
4192	1	1650	2915	
4193	1	1650	2923	
4194	1	1651	2924	
4195	1	1651	2935	
4196	1	1652	2949	
4197	1	1652	2962	
4198	1	1652	2974	
4199	1	1653	2976	
4200	1	1653	2985	
4201	1	1654	2996	
4202	1	1654	3007	
4203	1	1654	3020	
4204	1	1654	3033	
4205	1	1655	3053	
4206	1	1655	3073	
4207	1	1656	3088	
4208	1	1656	3087	
4209	1	1656	3086	
4210	1	1657	3086	
4211	1	1657	3083	
4212	1	1658	3078	
4213	1	1658	3059	
4214	1	1659	3032	
4215	1	1659	2991	
4216	1	1659	2948	
4217	1	1659	2904	
4218	1	1659	2847	
4219	1	1660	2784	
4220	1	1660	2720	
4221	1	1660	2666	
4222	1	1660	2622	
4223	1	1660	2593	
4224	1	1660	2570	
4225	1	1661	2547	
4226	1	1661	2538	
4227	1	1661	2526	
4228	1	1661	2521	
4229	1	1661	2513	
4230	1	1661	2516	
4231	1	1661	2508	
4232	1	1661	2510	
4233	1	1661	2505	
4234	1	1661	2505	
4235	1	1661	2503	
4236	1	1661	2505	
4237	1	1661	2502	
4238	1	1662	2506	
4239	1	1662	2504	
4240	1	1662	2512	
4241	1	1662	2510	
4242	1	1662	2518	
4243	1	1662	2513	
4244	1	1662	2521	
4245	1	1662	2526	
4246	1	1662	2526	
4247	1	1662	2522	
4248	1	1662	2527	
4249	1	1662	2522	
4250	1	1662	2525	
4251	1	1662	2530	
4252	1	1662	2532	
4253	1	1662	2540	
4254	1	1662	2536	
4255	1	1662	2539	
4256	1	1663	2530	
4257	1	1662	2533	
4258	1	1662	2531	
4259	1	1663	2538	
4260	1	1663	2539	
4261	1	1662	2533	
4262	1	1663	2536	
4263	1	1663	2528	
4264	1	1663	2520	
4265	1	1663	2521	
4266	1	1663	2513	
4267	1	1663	2512	
4268	1	1663	2505	
4269	1	1663	2493	
4270	1	1663	2488	
4271	1	1663	2481	
4272	1	1663	2464	
4273	1	1663	2459	
4274	1	1663	2451	
4275	1	1663	2435	
4276	1	1663	2427	
4277	1	1663	2417	
4278	1	1663	2404	
4279	1	1664	2394	
4280	1	1663	2382	
4281	1	1664	2373	
4282	1	1664	2360	
4283	1	1664	2345	
4284	1	1664	2330	
4285	1	1664	2322	
4286	1	1664	2308	
4287	1	1664	2298	
4288	1	1664	2281	
4289	1	1664	2267	
4290	1	1664	2262	
4291	1	1664	2247	
4292	1	1664	2232	
4293	1	1665	2226	
4294	1	1664	2210	
4295	1	1664	2204	
4296	1	1664	2194	
4297	1	1665	2183	
4298	1	1664	2176	
4299	1	1664	2162	
4300	1	1664	2158	
4301	1	1664	2154	
4302	1	1665	2144	
4303	1	1664	2142	
4304	1	1664	2131	
4305	1	1664	2131	
4306	1	1665	2120	
4307	1	1665	2121	
4308	1	1665	2118	
4309	1	1665	2115	
4310	1	1665	2118	
4311	1	1665	2111	
4312	1	1665	2110	
4313	1	1665	2117	
4314	1	1665	2117	
4315	1	1665	2116	
4316	1	1665	2123	
4317	1	1665	2119	
4318	1	1665	2110	
4319	1	1665	2105	
4320	1	1666	2085	
4321	1	1666	2059	
4322	1	1666	2043	
4323	1	1666	2015	
4324	1	1666	1977	
4325	1	1666	1934	
4326	1	1666	1882	
4327	1	1666	1815	
4328	1	1667	1725	
4329	1	1667	1590	
4330	1	1669	1229	
4331	1	1671	647	
4332	1	1672	342	
4333	1	1673	173	
4334	1	1673	86	
4335	1	1673	43	
4336	1	1673	23	
4337	1	1674	15	
4338	1	1674	17	
4339	1	1674	20	
4340	1	1674	26	
4341	1	1674	34	
4342	1	1675	40	
4343	1	1675	49	
4344	1	1675	55	
4345	1	1675	64	
4346	1	1675	71	
4347	1	1675	81	
4348	1	1675	87	
4349	1	1676	98	
4350	1	1676	103	
4351	1	1676	113	
4352	1	1676	119	
4353	1	1676	129	
4354	1	1676	135	
4355	1	1676	142	
4356	1	1675	152	
4357	1	1674	156	
4358	1	1674	165	
4359	1	1674	175	
4360	1	1673	308	
4361	1	1672	659	
4362	1	1671	996	
4363	1	1670	1288	
4364	1	1670	1545	
4365	1	1669	1768	
4366	1	1669	1968	
4367	1	1668	2138	
4368	1	1668	2299	
4369	1	1667	2433	
4370	1	1667	2530	
4371	1	1667	2610	
4372	1	1667	2672	
4373	1	1667	2712	
4374	1	1667	2745	
4375	1	1667	2765	
4376	1	1667	2772	
4377	1	1667	2774	
4378	1	1667	2771	
4379	1	1666	2753	
4380	1	1666	2736	
4381	1	1666	2714	
4382	1	1666	2676	
4383	1	1667	2633	
4384	1	1667	2577	
4385	1	1667	2493	
4386	1	1667	2360	
4387	1	1668	2134	
4388	1	1670	1414	
4389	1	1670	846	
4390	1	1671	543	
4391	1	1670	382	
4392	1	1670	292	
4393	1	1670	249	
4394	1	1670	229	
4395	1	1670	218	
4396	1	1670	219	
4397	1	1670	220	
4398	1	1670	224	
4399	1	1670	232	
4400	1	1670	237	
4401	1	1670	242	
4402	1	1670	251	
4403	1	1670	253	
4404	1	1670	261	
4405	1	1670	269	
4406	1	1670	274	
4407	1	1670	279	
4408	1	1670	287	
4409	1	1670	295	
4410	1	1670	326	
4411	1	1668	845	
4412	1	1668	1334	
4413	1	1667	1770	
4414	1	1666	2156	
4415	1	1666	2527	
4416	1	1665	2846	
4417	1	1665	3089	
4418	1	1665	3298	
4419	1	1665	3483	
4420	1	1664	3641	
4421	1	1664	3785	
4422	1	1664	3924	
4423	1	1664	4043	
4424	1	1664	4095	
4425	1	1664	4095	
4426	1	1664	4095	
4427	1	1664	4095	
4428	1	1664	4095	
4429	1	1664	4095	
4430	1	1664	4095	
4431	1	1664	4095	
4432	1	1664	4095	
4433	1	1665	4095	
4434	1	1664	4095	
4435	1	1665	4095	
4436	1	1664	4095	
4437	1	1664	4095	
4438	1	1664	4095	
4439	1	1665	4095	
4440	1	1665	4095	
4441	1	1665	4095	
4442	1	1665	4095	
4443	1	1665	4095	
4444	1	1665	4095	
4445	1	1665	4095	
4446	1	1665	4095	
4447	1	1665	4095	
4448	1	1665	4095	
4449	1	1665	4095	
4450	1	1665	4095	
4451	1	1665	4090	
4452	1	1665	4077	
4453	1	1665	4072	
4454	1	1665	4061	
4455	1	1666	4053	
4456	1	1665	4044	
4457	1	1666	4039	
4458	1	1665	4030	
4459	1	1665	4020	
4460	1	1666	4012	
4461	1	1665	4006	
4462	1	1665	3997	
4463	1	1665	3987	
4464	1	1665	3981	
4465	1	1665	3972	
4466	1	1665	3964	
4467	1	1665	3952	
4468	1	1665	3950	
4469	1	1666	3941	
4470	1	1665	3934	
4471	1	1666	3925	
4472	1	1666	3921	
4473	1	1665	3911	
4474	1	1665	3904	
4475	1	1665	3900	
4476	1	1665	3890	
4477	1	1666	3884	
4478	1	1665	3875	
4479	1	1665	3872	
4480	1	1665	3863	
4481	1	1666	3843	
4482	1	1666	3823	
4483	1	1665	3816	
4484	1	1665	3800	
4485	1	1666	3785	
4486	1	1665	3767	
4487	1	1665	3758	
4488	1	1666	3740	
4489	1	1666	3723	
4490	1	1665	3715	
4491	1	1665	3701	
4492	1	1665	3691	
4493	1	1665	3678	
4494	1	1665	3676	
4495	1	1665	3667	
4496	1	1665	3659	
4497	1	1665	3658	
4498	1	1665	3653	
4499	1	1665	3652	
4500	1	1665	3646	
4501	1	1666	3640	
4502	1	1665	3629	
4503	1	1666	3612	
4504	1	1665	3596	
4505	1	1665	3574	
4506	1	1666	3554	
4507	1	1666	3540	
4508	1	1666	3522	
4509	1	1666	3499	
4510	1	1665	3479	
4511	1	1665	3466	
4512	1	1666	3453	
4513	1	1666	3442	
4514	1	1666	3424	
4515	1	1666	3411	
4516	1	1666	3392	
4517	1	1666	3382	
4518	1	1666	3376	
4519	1	1666	3368	
4520	1	1666	3364	
4521	1	1666	3351	
4522	1	1666	3339	
4523	1	1666	3327	
4524	1	1666	3317	
4525	1	1666	3313	
4526	1	1666	3304	
4527	1	1666	3291	
4528	1	1666	3287	
4529	1	1666	3275	
4530	1	1666	3266	
4531	1	1666	3259	
4532	1	1666	3245	
4533	1	1666	3235	
4534	1	1666	3226	
4535	1	1666	3213	
4536	1	1666	3198	
4537	1	1666	3186	
4538	1	1666	3184	
4539	1	1666	3174	
4540	1	1666	3163	
4541	1	1666	3159	
4542	1	1666	3146	
4543	1	1666	3135	
4544	1	1666	3122	
4545	1	1666	3118	
4546	1	1666	3104	
4547	1	1666	3093	
4548	1	1666	3084	
4549	1	1666	3077	
4550	1	1666	3069	
4551	1	1666	3056	
4552	1	1666	3042	
4553	1	1666	3044	
4554	1	1666	3061	
4555	1	1666	3062	
4556	1	1666	3050	
4557	1	1666	3043	
4558	1	1666	3029	
4559	1	1666	3020	
4560	1	1666	3014	
4561	1	1666	2998	
4562	1	1667	2980	
4563	1	1667	2952	
4564	1	1667	2928	
4565	1	1666	2900	
4566	1	1667	2883	
4567	1	1667	2876	
4568	1	1667	2861	
4569	1	1667	2837	
4570	1	1667	2818	
4571	1	1667	2799	
4572	1	1667	2787	
4573	1	1667	2774	
4574	1	1667	2760	
4575	1	1667	2743	
4576	1	1667	2727	
4577	1	1667	2723	
4578	1	1667	2708	
4579	1	1667	2699	
4580	1	1667	2683	
4581	1	1667	2672	
4582	1	1667	2652	
4583	1	1667	2637	
4584	1	1668	2620	
4585	1	1667	2606	
4586	1	1667	2597	
4587	1	1667	2587	
4588	1	1668	2584	
4589	1	1668	2574	
4590	1	1668	2576	
4591	1	1668	2567	
4592	1	1668	2563	
4593	1	1668	2548	
4594	1	1668	2540	
4595	1	1668	2525	
4596	1	1668	2509	
4597	1	1668	2489	
4598	1	1668	2477	
4599	1	1668	2461	
4600	1	1668	2451	
4601	1	1668	2430	
4602	1	1668	2418	
4603	1	1668	2402	
4604	1	1668	2391	
4605	1	1668	2378	
4606	1	1668	2372	
4607	1	1668	2366	
4608	1	1668	2365	
4609	1	1668	2364	
4610	1	1668	2354	
4611	1	1668	2354	
4612	1	1668	2348	
4613	1	1668	2360	
4614	1	1668	2375	
4615	1	1668	2389	
4616	1	1668	2414	
4617	1	1669	2424	
4618	1	1669	2436	
4619	1	1669	2428	
4620	1	1669	2426	
4621	1	1669	2407	
4622	1	1669	2383	
4623	1	1669	2355	
4624	1	1669	2323	
4625	1	1669	2301	
4626	1	1669	2274	
4627	1	1669	2258	
4628	1	1670	2239	
4629	1	1669	2233	
4630	1	1669	2223	
4631	1	1669	2204	
4632	1	1669	2183	
4633	1	1670	2170	
4634	1	1670	2153	
4635	1	1670	2148	
4636	1	1669	2140	
4637	1	1670	2140	
4638	1	1670	2133	
4639	1	1670	2132	
4640	1	1670	2128	
4641	1	1669	2124	
4642	1	1669	2128	
4643	1	1670	2124	
4644	1	1670	2122	
4645	1	1669	2122	
4646	1	1670	2115	
4647	1	1670	2117	
4648	1	1670	2115	
4649	1	1670	2118	
4650	1	1669	2117	
4651	1	1670	2115	
4652	1	1670	2119	
4653	1	1669	2121	
4654	1	1670	2120	
4655	1	1670	2117	
4656	1	1670	2105	
4657	1	1670	2105	
4658	1	1670	2107	
4659	1	1670	2107	
4660	1	1670	2109	
4661	1	1670	2092	
4662	1	1670	2094	
4663	1	1670	2096	
4664	1	1670	2095	
4665	1	1670	2102	
4666	1	1670	2091	
4667	1	1670	2089	
4668	1	1670	2071	
4669	1	1670	2057	
4670	1	1670	2040	
4671	1	1670	2039	
4672	1	1671	2033	
4673	1	1671	2031	
4674	1	1671	2023	
4675	1	1671	2001	
4676	1	1670	1999	
4677	1	1671	2011	
4678	1	1671	2031	
4679	1	1671	2055	
4680	1	1671	2057	
4681	1	1671	2066	
4682	1	1671	2067	
4683	1	1671	2074	
4684	1	1671	2074	
4685	1	1671	2070	
4686	1	1671	2068	
4687	1	1671	2056	
4688	1	1671	2052	
4689	1	1671	2044	
4690	1	1671	2040	
4691	1	1671	2040	
4692	1	1671	2034	
4693	1	1671	2038	
4694	1	1671	2036	
4695	1	1671	2040	
4696	1	1671	2034	
4697	1	1671	2036	
4698	1	1671	2027	
4699	1	1672	2017	
4700	1	1671	2009	
4701	1	1671	2004	
4702	1	1671	2003	
4703	1	1672	2016	
4704	1	1672	2022	
4705	1	1672	2034	
4706	1	1672	2044	
4707	1	1672	2051	
4708	1	1672	2076	
4709	1	1672	2097	
4710	1	1672	2125	
4711	1	1673	2143	
4712	1	1673	2169	
4713	1	1673	2180	
4714	1	1673	2211	
4715	1	1673	2235	
4716	1	1673	2262	
4717	1	1673	2259	
4718	1	1674	2263	
4719	1	1674	2262	
4720	1	1674	2248	
4721	1	1674	2224	
4722	1	1674	2200	
4723	1	1674	2156	
4724	1	1674	2104	
4725	1	1674	2057	
4726	1	1674	2004	
4727	1	1674	1950	
4728	1	1674	1889	
4729	1	1674	1837	
4730	1	1674	1800	
4731	1	1674	1775	
4732	1	1674	1763	
4733	1	1674	1755	
4734	1	1674	1753	
4735	1	1674	1746	
4736	1	1673	1747	
4737	1	1673	1746	
4738	1	1673	1753	
4739	1	1673	1756	
4740	1	1673	1766	
4741	1	1673	1769	
4742	1	1673	1776	
4743	1	1673	1785	
4744	1	1673	1787	
4745	1	1673	1793	
4746	1	1673	1797	
4747	1	1673	1798	
4748	1	1672	1803	
4749	1	1672	1805	
4750	1	1672	1810	
4751	1	1672	1812	
4752	1	1672	1819	
4753	1	1672	1822	
4754	1	1672	1831	
4755	1	1672	1833	
4756	1	1672	1842	
4757	1	1673	1841	
4758	1	1673	1834	
4759	1	1673	1835	
4760	1	1673	1826	
4761	1	1673	1819	
4762	1	1673	1809	
4763	1	1673	1803	
4764	1	1672	1790	
4765	1	1672	1778	
4766	1	1673	1766	
4767	1	1673	1755	
4768	1	1672	1752	
4769	1	1672	1757	
4770	1	1672	1753	
4771	1	1673	1759	
4772	1	1672	1758	
4773	1	1672	1762	
4774	1	1672	1758	
4775	1	1672	1760	
4776	1	1672	1758	
4777	1	1673	1760	
4778	1	1672	1755	
4779	1	1673	1754	
4780	1	1673	1748	
4781	1	1673	1750	
4782	1	1673	1746	
4783	1	1673	1749	
4784	1	1672	1751	
4785	1	1673	1756	
4786	1	1672	1766	
4787	1	1673	1771	
4788	1	1673	1761	
4789	1	1673	1755	
4790	1	1673	1752	
4791	1	1673	1773	
4792	1	1673	1798	
4793	1	1673	1815	
4794	1	1673	1801	
4795	1	1673	1800	
4796	1	1673	1792	
4797	1	1673	1782	
4798	1	1673	1765	
4799	1	1674	1759	
4800	1	1673	1750	
4801	1	1673	1732	
4802	1	1673	1713	
4803	1	1674	1702	
4804	1	1674	1690	
4805	1	1674	1685	
4806	1	1674	1678	
4807	1	1674	1677	
4808	1	1674	1675	
4809	1	1674	1675	
4810	1	1674	1677	
4811	1	1674	1677	
4812	1	1674	1681	
4813	1	1674	1683	
4814	1	1674	1689	
4815	1	1674	1698	
4816	1	1674	1706	
4817	1	1674	1713	
4818	1	1674	1715	
4819	1	1674	1716	
4820	1	1674	1715	
4821	1	1674	1715	
4822	1	1674	1720	
4823	1	1674	1724	
4824	1	1675	1730	
4825	1	1675	1720	
4826	1	1675	1704	
4827	1	1675	1700	
4828	1	1675	1701	
4829	1	1675	1705	
4830	1	1675	1709	
4831	1	1676	1713	
4832	1	1675	1699	
4833	1	1675	1692	
4834	1	1675	1692	
4835	1	1676	1702	
4836	1	1675	1707	
4837	1	1675	1709	
4838	1	1676	1712	
4839	1	1676	1713	
4840	1	1676	1712	
4841	1	1676	1707	
4842	1	1676	1703	
4843	1	1676	1706	
4844	1	1676	1708	
4845	1	1676	1711	
4846	1	1676	1712	
4847	1	1676	1717	
4848	1	1676	1721	
4849	1	1676	1728	
4850	1	1676	1728	
4851	1	1677	1735	
4852	1	1677	1738	
4853	1	1677	1744	
4854	1	1677	1746	
4855	1	1677	1748	
4856	1	1677	1755	
4857	1	1677	1760	
4858	1	1677	1772	
4859	1	1678	1777	
4860	1	1677	1789	
4861	1	1678	1792	
4862	1	1678	1798	
4863	1	1678	1795	
4864	1	1678	1797	
4865	1	1678	1790	
4866	1	1678	1792	
4867	1	1678	1786	
4868	1	1678	1790	
4869	1	1679	1787	
4870	1	1679	1792	
4871	1	1679	1791	
4872	1	1679	1789	
4873	1	1679	1790	
4874	1	1679	1788	
4875	1	1679	1790	
4876	1	1679	1786	
4877	1	1679	1786	
4878	1	1679	1782	
4879	1	1679	1784	
4880	1	1679	1784	
4881	1	1679	1782	
4882	1	1679	1780	
4883	1	1679	1775	
4884	1	1680	1778	
4885	1	1679	1775	
4886	1	1679	1781	
4887	1	1680	1781	
4888	1	1680	1784	
4889	1	1680	1778	
4890	1	1680	1773	
4891	1	1680	1767	
4892	1	1680	1761	
4893	1	1680	1761	
4894	1	1680	1755	
4895	1	1680	1755	
4896	1	1680	1748	
4897	1	1680	1748	
4898	1	1680	1743	
4899	1	1680	1738	
4900	1	1681	1737	
4901	1	1680	1732	
4902	1	1680	1729	
4903	1	1680	1724	
4904	1	1680	1729	
4905	1	1680	1734	
4906	1	1681	1737	
4907	1	1680	1748	
4908	1	1680	1752	
4909	1	1680	1753	
4910	1	1681	1744	
4911	1	1680	1736	
4912	1	1680	1731	
4913	1	1680	1730	
4914	1	1681	1719	
4915	1	1681	1710	
4916	1	1680	1706	
4917	1	1681	1702	
4918	1	1680	1699	
4919	1	1680	1691	
4920	1	1681	1682	
4921	1	1680	1671	
4922	1	1681	1668	
4923	1	1681	1663	
4924	1	1681	1661	
4925	1	1680	1658	
4926	1	1680	1656	
4927	1	1680	1654	
4928	1	1680	1653	
4929	1	1680	1657	
4930	1	1680	1658	
4931	1	1680	1668	
4932	1	1680	1681	
4933	1	1680	1698	
4934	1	1680	1706	
4935	1	1679	1704	
4936	1	1679	1710	
4937	1	1679	1718	
4938	1	1679	1739	
4939	1	1679	1752	
4940	1	1679	1760	
4941	1	1679	1754	
4942	1	1680	1736	
4943	1	1679	1719	
4944	1	1680	1704	
4945	1	1680	1686	
4946	1	1679	1672	
4947	1	1680	1661	
4948	1	1679	1652	
4949	1	1679	1649	
4950	1	1679	1640	
4951	1	1679	1635	
4952	1	1679	1640	
4953	1	1679	1654	
4954	1	1679	1664	
4955	1	1679	1664	
4956	1	1679	1653	
4957	1	1679	1643	
4958	1	1679	1643	
4959	1	1679	1647	
4960	1	1679	1651	
4961	1	1678	1653	
4962	1	1678	1645	
4963	1	1679	1642	
4964	1	1678	1640	
4965	1	1678	1640	
4966	1	1678	1647	
4967	1	1679	1646	
4968	1	1678	1641	
4969	1	1678	1641	
4970	1	1678	1661	
4971	1	1678	1677	
4972	1	1678	1680	
4973	1	1678	1685	
4974	1	1678	1688	
4975	1	1678	1695	
4976	1	1678	1687	
4977	1	1678	1681	
4978	1	1678	1684	
4979	1	1678	1697	
4980	1	1678	1702	
4981	1	1678	1699	
4982	1	1678	1692	
4983	1	1677	1691	
4984	1	1678	1685	
4985	1	1678	1670	
4986	1	1678	1660	
4987	1	1678	1653	
4988	1	1678	1654	
4989	1	1678	1657	
4990	1	1678	1657	
4991	1	1677	1660	
4992	1	1677	1657	
4993	1	1678	1657	
4994	1	1678	1654	
4995	1	1678	1650	
4996	1	1678	1658	
4997	1	1678	1666	
4998	1	1677	1673	
4999	1	1677	1677	
5000	1	1677	1678	
5001	1	1678	1680	
5002	1	1677	1677	
5003	1	1677	1684	
5004	1	1677	1685	
5005	1	1677	1686	
5006	1	1677	1686	
5007	1	1677	1690	
5008	1	1677	1689	
5009	1	1677	1692	
5010	1	1677	1693	
5011	1	1677	1697	
5012	1	1677	1699	
5013	1	1677	1706	
5014	1	1678	1708	
5015	1	1677	1713	
5016	1	1678	1715	
5017	1	1677	1722	
5018	1	1677	1721	
5019	1	1677	1729	
5020	1	1677	1732	
5021	1	1678	1727	
5022	1	1677	1711	
5023	1	1677	1715	
5024	1	1677	1712	
5025	1	1677	1700	
5026	1	1677	1693	
5027	1	1677	1696	
5028	1	1678	1701	
5029	1	1678	1699	
5030	1	1678	1708	
5031	1	1677	1712	
5032	1	1678	1718	
5033	1	1678	1720	
5034	1	1678	1725	
5035	1	1678	1727	
5036	1	1678	1724	
5037	1	1678	1731	
5038	1	1678	1752	
5039	1	1678	1782	
5040	1	1678	1815	
5041	1	1678	1838	
5042	1	1678	1842	
5043	1	1678	1797	
5044	1	1678	1758	
5045	1	1678	1739	
5046	1	1678	1747	
5047	1	1679	1736	
5048	1	1679	1724	
5049	1	1679	1714	
5050	1	1679	1725	
5051	1	1679	1731	
5052	1	1679	1728	
5053	1	1679	1715	
5054	1	1679	1718	
5055	1	1679	1719	
5056	1	1679	1724	
5057	1	1679	1724	
5058	1	1680	1727	
5059	1	1679	1732	
5060	1	1679	1729	
5061	1	1680	1714	
5062	1	1680	1701	
5063	1	1680	1700	
5064	1	1680	1704	
5065	1	1680	1708	
5066	1	1680	1707	
5067	1	1680	1704	
5068	1	1680	1706	
5069	1	1680	1709	
5070	1	1680	1713	
5071	1	1680	1716	
5072	1	1680	1723	
5073	1	1681	1735	
5074	1	1681	1733	
5075	1	1681	1738	
5076	1	1681	1746	
5077	1	1681	1742	
5078	1	1681	1749	
5079	1	1681	1748	
5080	1	1681	1745	
5081	1	1681	1741	
5082	1	1681	1766	
5083	1	1681	1787	
5084	1	1681	1794	
5085	1	1681	1823	
5086	1	1681	1844	
5087	1	1681	1852	
5088	1	1682	1833	
5089	1	1682	1807	
5090	1	1682	1797	
5091	1	1682	1798	
5092	1	1682	1777	
5093	1	1682	1757	
5094	1	1682	1732	
5095	1	1682	1712	
5096	1	1682	1699	
5097	1	1682	1690	
5098	1	1682	1697	
5099	1	1682	1699	
5100	1	1682	1704	
5101	1	1683	1703	
5102	1	1682	1705	
5103	1	1683	1709	
5104	1	1682	1716	
5105	1	1682	1722	
5106	1	1682	1755	
5107	1	1682	1797	
5108	1	1683	1816	
5109	1	1683	1816	
5110	1	1683	1802	
5111	1	1683	1788	
5112	1	1683	1778	
5113	1	1683	1779	
5114	1	1683	1765	
5115	1	1683	1742	
5116	1	1683	1729	
5117	1	1683	1726	
5118	1	1683	1747	
5119	1	1683	1769	
5120	1	1683	1777	
5121	1	1683	1751	
5122	1	1683	1724	
5123	1	1684	1716	
5124	1	1684	1710	
5125	1	1683	1713	
5126	1	1684	1709	
5127	1	1684	1711	
5128	1	1684	1711	
5129	1	1684	1711	
5130	1	1684	1714	
5131	1	1684	1714	
5132	1	1684	1720	
5133	1	1684	1727	
5134	1	1684	1736	
5135	1	1684	1748	
5136	1	1684	1759	
5137	1	1684	1776	
5138	1	1684	1782	
5139	1	1684	1780	
5140	1	1684	1775	
5141	1	1685	1783	
5142	1	1684	1802	
5143	1	1684	1816	
5144	1	1685	1818	
5145	1	1685	1815	
5146	1	1684	1811	
5147	1	1685	1801	
5148	1	1685	1803	
5149	1	1685	1801	
5150	1	1685	1803	
5151	1	1685	1794	
5152	1	1685	1796	
5153	1	1685	1808	
5154	1	1685	1805	
5155	1	1685	1782	
5156	1	1685	1748	
5157	1	1685	1742	
5158	1	1686	1733	
5159	1	1685	1738	
5160	1	1686	1739	
5161	1	1685	1734	
5162	1	1686	1735	
5163	1	1686	1729	
5164	1	1686	1735	
5165	1	1686	1738	
5166	1	1686	1743	
5167	1	1686	1748	
5168	1	1686	1746	
5169	1	1686	1745	
5170	1	1686	1734	
5171	1	1686	1727	
5172	1	1686	1754	
5173	1	1686	1781	
5174	1	1686	1803	
5175	1	1686	1808	
5176	1	1686	1820	
5177	1	1686	1820	
5178	1	1686	1809	
5179	1	1686	1781	
5180	1	1686	1757	
5181	1	1686	1751	
5182	1	1686	1756	
5183	1	1687	1757	
5184	1	1686	1751	
5185	1	1686	1753	
5186	1	1687	1763	
5187	1	1687	1784	
5188	1	1687	1814	
5189	1	1687	1829	
5190	1	1687	1831	
5191	1	1687	1808	
5192	1	1687	1781	
5193	1	1687	1742	
5194	1	1687	1732	
5195	1	1687	1723	
5196	1	1687	1712	
5197	1	1687	1703	
5198	1	1687	1703	
5199	1	1687	1703	
5200	1	1687	1692	
5201	1	1687	1691	
5202	1	1687	1694	
5203	1	1687	1695	
5204	1	1687	1704	
5205	1	1687	1708	
5206	1	1687	1712	
5207	1	1687	1721	
5208	1	1687	1731	
5209	1	1687	1746	
5210	1	1687	1753	
5211	1	1688	1766	
5212	1	1687	1779	
5213	1	1687	1790	
5214	1	1687	1811	
5215	1	1688	1828	
5216	1	1688	1847	
5217	1	1688	1860	
5218	1	1688	1876	
5219	1	1688	1894	
5220	1	1688	1906	
5221	1	1688	1924	
5222	1	1688	1937	
5223	1	1688	1962	
5224	1	1688	1978	
5225	1	1688	2003	
5226	1	1689	2016	
5227	1	1689	2026	
5228	1	1689	2035	
5229	1	1689	2034	
5230	1	1689	2038	
5231	1	1689	2038	
5232	1	1689	2027	
5233	1	1689	2020	
5234	1	1689	1992	
5235	1	1689	1968	
5236	1	1689	1948	
5237	1	1689	1921	
5238	1	1689	1891	
5239	1	1689	1866	
5240	1	1689	1853	
5241	1	1688	1838	
5242	1	1688	1829	
5243	1	1688	1812	
5244	1	1688	1786	
5245	1	1688	1776	
5246	1	1687	1773	
5247	1	1688	1765	
5248	1	1688	1764	
5249	1	1687	1764	
5250	1	1687	1760	
5251	1	1687	1755	
5252	1	1687	1749	
5253	1	1687	1747	
5254	1	1687	1745	
5255	1	1687	1748	
5256	1	1687	1754	
5257	1	1687	1754	
5258	1	1687	1757	
5259	1	1687	1763	
5260	1	1687	1765	
5261	1	1687	1770	
5262	1	1688	1779	
5263	1	1688	1781	
5264	1	1687	1784	
5265	1	1688	1788	
5266	1	1688	1789	
5267	1	1688	1792	
5268	1	1688	1796	
5269	1	1688	1800	
5270	1	1688	1803	
5271	1	1688	1799	
5272	1	1688	1796	
5273	1	1688	1800	
5274	1	1688	1805	
5275	1	1688	1808	
5276	1	1688	1812	
5277	1	1688	1820	
5278	1	1688	1826	
5279	1	1688	1828	
5280	1	1689	1822	
5281	1	1688	1822	
5282	1	1689	1823	
5283	1	1689	1819	
5284	1	1689	1816	
5285	1	1688	1820	
5286	1	1688	1817	
5287	1	1688	1812	
5288	1	1688	1804	
5289	1	1689	1795	
5290	1	1689	1785	
5291	1	1689	1784	
5292	1	1689	1790	
5293	1	1689	1792	
5294	1	1689	1793	
5295	1	1689	1798	
5296	1	1689	1800	
5297	1	1689	1797	
5298	1	1689	1794	
5299	1	1689	1795	
5300	1	1689	1790	
5301	1	1689	1792	
5302	1	1690	1798	
5303	1	1689	1799	
5304	1	1689	1804	
5305	1	1690	1809	
5306	1	1690	1804	
5307	1	1690	1805	
5308	1	1690	1808	
5309	1	1690	1814	
5310	1	1690	1822	
5311	1	1690	1823	
5312	1	1690	1814	
5313	1	1690	1812	
5314	1	1690	1817	
5315	1	1690	1817	
5316	1	1690	1829	
5317	1	1690	1850	
5318	1	1690	1868	
5319	1	1690	1889	
5320	1	1690	1915	
5321	1	1690	1942	
5322	1	1690	1942	
5323	1	1690	1938	
5324	1	1690	1941	
5325	1	1690	1939	
5326	1	1690	1932	
5327	1	1690	1920	
5328	1	1690	1898	
5329	1	1690	1866	
5330	1	1690	1844	
5331	1	1690	1820	
5332	1	1690	1808	
5333	1	1691	1799	
5334	1	1690	1786	
5335	1	1690	1780	
5336	1	1690	1774	
5337	1	1690	1773	
5338	1	1690	1779	
5339	1	1690	1780	
5340	1	1690	1785	
5341	1	1691	1791	
5342	1	1691	1792	
5343	1	1691	1797	
5344	1	1690	1801	
5345	1	1691	1797	
5346	1	1691	1803	
5347	1	1690	1803	
5348	1	1690	1805	
5349	1	1690	1821	
5350	1	1690	1833	
5351	1	1690	1850	
5352	1	1691	1864	
5353	1	1691	1871	
5354	1	1691	1891	
5355	1	1691	1908	
5356	1	1690	1919	
5357	1	1690	1937	
5358	1	1690	1950	
5359	1	1691	1949	
5360	1	1691	1941	
5361	1	1691	1933	
5362	1	1691	1926	
5363	1	1691	1932	
5364	1	1691	1933	
5365	1	1691	1916	
5366	1	1691	1903	
5367	1	1691	1881	
5368	1	1691	1864	
5369	1	1691	1838	
5370	1	1691	1831	
5371	1	1691	1845	
5372	1	1691	1857	
5373	1	1691	1869	
5374	1	1691	1869	
5375	1	1691	1873	
5376	1	1691	1877	
5377	1	1691	1885	
5378	1	1691	1889	
5379	1	1691	1896	
5380	1	1691	1895	
5381	1	1691	1883	
5382	1	1691	1882	
5383	1	1691	1884	
5384	1	1691	1881	
5385	1	1691	1886	
5386	1	1691	1885	
5387	1	1691	1889	
5388	1	1691	1891	
5389	1	1691	1886	
5390	1	1691	1888	
5391	1	1691	1893	
5392	1	1691	1892	
5393	1	1691	1898	
5394	1	1691	1901	
5395	1	1691	1900	
5396	1	1691	1901	
5397	1	1691	1908	
5398	1	1691	1911	
5399	1	1691	1909	
5400	1	1691	1917	
5401	1	1691	1924	
5402	1	1691	1924	
5403	1	1691	1918	
5404	1	1691	1924	
5405	1	1691	1924	
5406	1	1691	1933	
5407	1	1691	1942	
5408	1	1691	1935	
5409	1	1691	1932	
5410	1	1691	1916	
5411	1	1691	1912	
5412	1	1691	1909	
5413	1	1691	1914	
5414	1	1691	1918	
5415	1	1691	1919	
5416	1	1691	1935	
5417	1	1691	1948	
5418	1	1691	1957	
5419	1	1691	1974	
5420	1	1691	1981	
5421	1	1691	1986	
5422	1	1691	1980	
5423	1	1691	1975	
5424	1	1691	1973	
5425	1	1691	1971	
5426	1	1691	1962	
5427	1	1691	1964	
5428	1	1691	1963	
5429	1	1691	1955	
5430	1	1691	1950	
5431	1	1691	1949	
5432	1	1691	1947	
5433	1	1691	1943	
5434	1	1691	1938	
5435	1	1691	1943	
5436	1	1691	1950	
5437	1	1691	1960	
5438	1	1691	1967	
5439	1	1690	1974	
5440	1	1691	1975	
5441	1	1690	1976	
5442	1	1691	1977	
5443	1	1691	1983	
5444	1	1690	1983	
5445	1	1691	1973	
5446	1	1691	1977	
5447	1	1690	1968	
5448	1	1690	1955	
5449	1	1691	1939	
5450	1	1690	1926	
5451	1	1690	1927	
5452	1	1690	1934	
5453	1	1690	1946	
5454	1	1690	1953	
5455	1	1690	1960	
5456	1	1690	1965	
5457	1	1690	1962	
5458	1	1690	1951	
5459	1	1690	1947	
5460	1	1690	1938	
5461	1	1690	1920	
5462	1	1690	1914	
5463	1	1690	1901	
5464	1	1690	1900	
5465	1	1690	1892	
5466	1	1690	1896	
5467	1	1690	1893	
5468	1	1690	1900	
5469	1	1690	1906	
5470	1	1690	1924	
5471	1	1690	1937	
5472	1	1690	1941	
5473	1	1690	1950	
5474	1	1689	1951	
5475	1	1689	1956	
5476	1	1690	1954	
5477	1	1689	1954	
5478	1	1689	1956	
5479	1	1689	1949	
5480	1	1689	1947	
5481	1	1689	1937	
5482	1	1689	1933	
5483	1	1689	1934	
5484	1	1689	1928	
5485	1	1689	1932	
5486	1	1689	1928	
5487	1	1689	1936	
5488	1	1689	1934	
5489	1	1689	1934	
5490	1	1689	1928	
5491	1	1689	1931	
5492	1	1689	1933	
5493	1	1689	1941	
5494	1	1688	1945	
5495	1	1689	1942	
5496	1	1689	1947	
5497	1	1688	1945	
5498	1	1689	1953	
5499	1	1688	1948	
5500	1	1688	1951	
5501	1	1688	1956	
5502	1	1688	1958	
5503	1	1688	1967	
5504	1	1688	1958	
5505	1	1688	1947	
5506	1	1688	1940	
5507	1	1688	1946	
5508	1	1688	1971	
5509	1	1688	1980	
5510	1	1688	1983	
5511	1	1688	1971	
5512	1	1688	1962	
5513	1	1688	1953	
5514	1	1688	1958	
5515	1	1688	1957	
5516	1	1688	1948	
5517	1	1688	1951	
5518	1	1688	1946	
5519	1	1688	1947	
5520	1	1687	1939	
5521	1	1687	1942	
5522	1	1687	1950	
5523	1	1687	1952	
5524	1	1687	1955	
5525	1	1687	1951	
5526	1	1687	1950	
5527	1	1687	1950	
5528	1	1687	1967	
5529	1	1687	1977	
5530	1	1687	1976	
5531	1	1687	1978	
5532	1	1687	1960	
5533	1	1687	1947	
5534	1	1687	1939	
5535	1	1687	1936	
5536	1	1687	1931	
5537	1	1687	1937	
5538	1	1686	1939	
5539	1	1687	1941	
5540	1	1687	1940	
5541	1	1687	1940	
5542	1	1686	1943	
5543	1	1687	1946	
5544	1	1686	1962	
5545	1	1686	1975	
5546	1	1686	2002	
5547	1	1687	2009	
5548	1	1687	1990	
5549	1	1687	1981	
5550	1	1686	1979	
5551	1	1687	1972	
5552	1	1686	1961	
5553	1	1686	1951	
5554	1	1686	1956	
5555	1	1686	1962	
5556	1	1686	1952	
5557	1	1686	1954	
5558	1	1687	1952	
5559	1	1686	1954	
5560	1	1686	1962	
5561	1	1686	1960	
5562	1	1686	1968	
5563	1	1687	1970	
5564	1	1687	1970	
5565	1	1687	1972	
5566	1	1687	1963	
5567	1	1687	1965	
5568	1	1687	1967	
5569	1	1687	1964	
5570	1	1687	1967	
5571	1	1687	1963	
5572	1	1687	1970	
5573	1	1687	1975	
5574	1	1688	1972	
5575	1	1687	1980	
5576	1	1687	1978	
5577	1	1687	1978	
5578	1	1687	1982	
5579	1	1688	1979	
5580	1	1688	1982	
5581	1	1688	1978	
5582	1	1688	1981	
5583	1	1688	1977	
5584	1	1688	1982	
5585	1	1688	1978	
5586	1	1688	1984	
5587	1	1688	1983	
5588	1	1688	1991	
5589	1	1688	1990	
5590	1	1688	1992	
5591	1	1688	1997	
5592	1	1688	1992	
5593	1	1688	1997	
5594	1	1688	2000	
5595	1	1688	2000	
5596	1	1688	2004	
5597	1	1688	2001	
5598	1	1688	2005	
5599	1	1688	2013	
5600	1	1689	2011	
5601	1	1689	2014	
5602	1	1688	2011	
5603	1	1689	2025	
5604	1	1689	2028	
5605	1	1689	2035	
5606	1	1689	2034	
5607	1	1689	2030	
5608	1	1689	2016	
5609	1	1689	1992	
5610	1	1689	1986	
5611	1	1689	1991	
5612	1	1689	1995	
5613	1	1689	1997	
5614	1	1690	1993	
5615	1	1689	2000	
5616	1	1690	2007	
5617	1	1689	2005	
5618	1	1689	2009	
5619	1	1690	2004	
5620	1	1689	1998	
5621	1	1690	1985	
5622	1	1689	1984	
5623	1	1690	1979	
5624	1	1690	1976	
5625	1	1689	1975	
5626	1	1690	1969	
5627	1	1690	1968	
5628	1	1690	1957	
5629	1	1690	1960	
5630	1	1690	1959	
5631	1	1690	1966	
5632	1	1690	1965	
5633	1	1690	1969	
5634	1	1690	1967	
5635	1	1690	1970	
5636	1	1690	1974	
5637	1	1690	1970	
5638	1	1690	1974	
5639	1	1690	1973	
5640	1	1690	1979	
5641	1	1690	1979	
5642	1	1690	1979	
5643	1	1690	1984	
5644	1	1690	1986	
5645	1	1690	1983	
5646	1	1690	1989	
5647	1	1690	1992	
5648	1	1690	1990	
5649	1	1690	1998	
5650	1	1690	1993	
5651	1	1690	1998	
5652	1	1690	1997	
5653	1	1690	2002	
5654	1	1690	1998	
5655	1	1690	2008	
5656	1	1690	2008	
5657	1	1690	2014	
5658	1	1690	2014	
5659	1	1690	2018	
5660	1	1690	2013	
5661	1	1690	2020	
5662	1	1690	2020	
5663	1	1690	2027	
5664	1	1690	2023	
5665	1	1690	2030	
5666	1	1690	2027	
5667	1	1690	2025	
5668	1	1690	2019	
5669	1	1691	2008	
5670	1	1690	2010	
5671	1	1690	2002	
5672	1	1690	2000	
5673	1	1690	2001	
5674	1	1690	2003	
5675	1	1690	2014	
5676	1	1690	2017	
5677	1	1690	2011	
5678	1	1690	2012	
5679	1	1690	2003	
5680	1	1690	2006	
5681	1	1690	2006	
5682	1	1690	2004	
5683	1	1690	2013	
5684	1	1690	2014	
5685	1	1690	2020	
5686	1	1690	2022	
5687	1	1690	2029	
5688	1	1690	2026	
5689	1	1690	2028	
5690	1	1690	2019	
5691	1	1690	2021	
5692	1	1691	2018	
5693	1	1690	2020	
5694	1	1690	2012	
5695	1	1690	2011	
5696	1	1691	2004	
5697	1	1690	2006	
5698	1	1690	2000	
5699	1	1690	2001	
5700	1	1690	1996	
5701	1	1690	1997	
5702	1	1690	1993	
5703	1	1690	1986	
5704	1	1690	1988	
5705	1	1690	1982	
5706	1	1690	1985	
5707	1	1690	1983	
5708	1	1690	1995	
5709	1	1690	1996	
5710	1	1690	1999	
5711	1	1690	2002	
5712	1	1690	2001	
5713	1	1690	2005	
5714	1	1690	2010	
5715	1	1690	2009	
5716	1	1690	2018	
5717	1	1690	2014	
5718	1	1690	2015	
5719	1	1690	2018	
5720	1	1690	2012	
5721	1	1690	2017	
5722	1	1689	2013	
5723	1	1689	2010	
5724	1	1690	2011	
5725	1	1690	2007	
5726	1	1689	2011	
5727	1	1690	2007	
5728	1	1689	2012	
5729	1	1689	2010	
5730	1	1689	2007	
5731	1	1689	2012	
5732	1	1689	2006	
5733	1	1689	2008	
5734	1	1689	2004	
5735	1	1689	2009	
5736	1	1689	2004	
5737	1	1689	2006	
5738	1	1689	2006	
5739	1	1689	1999	
5740	1	1689	2003	
5741	1	1689	1999	
5742	1	1689	2006	
5743	1	1688	1999	
5744	1	1689	2002	
5745	1	1688	1999	
5746	1	1688	2006	
5747	1	1688	2006	
5748	1	1688	2016	
5749	1	1688	2020	
5750	1	1688	2028	
5751	1	1688	2036	
5752	1	1688	2042	
5753	1	1688	2054	
5754	1	1688	2058	
5755	1	1688	2074	
5756	1	1688	2083	
5757	1	1688	2103	
5758	1	1688	2112	
5759	1	1688	2129	
5760	1	1688	2143	
5761	1	1688	2169	
5762	1	1689	2179	
5763	1	1688	2197	
5764	1	1689	2204	
5765	1	1689	2220	
5766	1	1689	2225	
5767	1	1689	2241	
5768	1	1689	2253	
5769	1	1689	2269	
5770	1	1690	2280	
5771	1	1690	2281	
5772	1	1690	2291	
5773	1	1690	2291	
5774	1	1690	2287	
5775	1	1690	2281	
5776	1	1690	2269	
5777	1	1690	2255	
5778	1	1690	2225	
5779	1	1691	2201	
5780	1	1691	2167	
5781	1	1690	2134	
5782	1	1690	2087	
5783	1	1690	2048	
5784	1	1690	2012	
5785	1	1690	1995	
5786	1	1691	1978	
5787	1	1691	1978	
5788	1	1691	1979	
5789	1	1691	1995	
5790	1	1691	1998	
5791	1	1691	2003	
5792	1	1691	2024	
5793	1	1692	2048	
5794	1	1692	2051	
5795	1	1692	2056	
5796	1	1692	2050	
5797	1	1692	2055	
5798	1	1692	2043	
5799	1	1692	2033	
5800	1	1692	2021	
5801	1	1692	2019	
5802	1	1693	2007	
5803	1	1693	1998	
5804	1	1693	1979	
5805	1	1693	1972	
5806	1	1693	1958	
5807	1	1693	1953	
5808	1	1693	1944	
5809	1	1693	1940	
5810	1	1693	1946	
5811	1	1693	1945	
5812	1	1694	1956	
5813	1	1694	1959	
5814	1	1693	1971	
5815	1	1694	1975	
5816	1	1694	1990	
5817	1	1694	1995	
5818	1	1694	1995	
5819	1	1694	2003	
5820	1	1694	2002	
5821	1	1694	2010	
5822	1	1694	2010	
5823	1	1694	2016	
5824	1	1694	2022	
5825	1	1694	2015	
5826	1	1694	2019	
5827	1	1694	2024	
5828	1	1694	2046	
5829	1	1694	2056	
5830	1	1694	2068	
5831	1	1694	2068	
5832	1	1694	2069	
5833	1	1694	2068	
5834	1	1694	2062	
5835	1	1694	2049	
5836	1	1694	2030	
5837	1	1694	2018	
5838	1	1694	2004	
5839	1	1694	1990	
5840	1	1694	1984	
5841	1	1694	1985	
5842	1	1694	1987	
5843	1	1694	1996	
5844	1	1694	2012	
5845	1	1694	2029	
5846	1	1694	2055	
5847	1	1694	2068	
5848	1	1694	2070	
5849	1	1694	2083	
5850	1	1694	2090	
5851	1	1694	2082	
5852	1	1694	2063	
5853	1	1694	2055	
5854	1	1694	2062	
5855	1	1694	2058	
5856	1	1694	2051	
5857	1	1694	2034	
5858	1	1694	2025	
5859	1	1694	2015	
5860	1	1694	2001	
5861	1	1694	1993	
5862	1	1694	1984	
5863	1	1694	1988	
5864	1	1694	1988	
5865	1	1694	1998	
5866	1	1694	2008	
5867	1	1694	2010	
5868	1	1694	2019	
5869	1	1694	2016	
5870	1	1694	2020	
5871	1	1694	2021	
5872	1	1693	2018	
5873	1	1693	2025	
5874	1	1694	2029	
5875	1	1694	2044	
5876	1	1693	2053	
5877	1	1693	2067	
5878	1	1693	2081	
5879	1	1693	2090	
5880	1	1693	2110	
5881	1	1693	2116	
5882	1	1693	2126	
5883	1	1694	2118	
5884	1	1694	2117	
5885	1	1694	2105	
5886	1	1694	2104	
5887	1	1694	2090	
5888	1	1694	2085	
5889	1	1694	2070	
5890	1	1694	2066	
5891	1	1694	2058	
5892	1	1694	2056	
5893	1	1694	2059	
5894	1	1694	2061	
5895	1	1694	2074	
5896	1	1694	2080	
5897	1	1694	2090	
5898	1	1694	2088	
5899	1	1694	2095	
5900	1	1694	2087	
5901	1	1694	2086	
5902	1	1694	2082	
5903	1	1694	2074	
5904	1	1694	2072	
5905	1	1694	2065	
5906	1	1693	2062	
5907	1	1693	2055	
5908	1	1694	2055	
5909	1	1693	2046	
5910	1	1693	2044	
5911	1	1693	2047	
5912	1	1693	2048	
5913	1	1693	2054	
5914	1	1693	2058	
5915	1	1693	2057	
5916	1	1692	2068	
5917	1	1692	2067	
5918	1	1692	2069	
5919	1	1692	2068	
5920	1	1692	2058	
5921	1	1692	2054	
5922	1	1692	2055	
5923	1	1692	2051	
5924	1	1692	2056	
5925	1	1692	2058	
5926	1	1692	2060	
5927	1	1692	2066	
5928	1	1692	2068	
5929	1	1692	2077	
5930	1	1691	2074	
5931	1	1691	2079	
5932	1	1692	2078	
5933	1	1691	2075	
5934	1	1691	2075	
5935	1	1691	2072	
5936	1	1691	2072	
5937	1	1691	2081	
5938	1	1691	2085	
5939	1	1691	2095	
5940	1	1691	2097	
5941	1	1691	2099	
5942	1	1691	2106	
5943	1	1691	2103	
5944	1	1691	2109	
5945	1	1691	2108	
5946	1	1690	2105	
5947	1	1690	2105	
5948	1	1690	2101	
5949	1	1690	2098	
5950	1	1690	2091	
5951	1	1690	2088	
5952	1	1690	2080	
5953	1	1690	2073	
5954	1	1690	2070	
5955	1	1690	2066	
5956	1	1690	2066	
5957	1	1689	2062	
5958	1	1689	2065	
5959	1	1689	2075	
5960	1	1689	2083	
5961	1	1689	2105	
5962	1	1689	2116	
5963	1	1689	2130	
5964	1	1688	2146	
5965	1	1689	2158	
5966	1	1689	2174	
5967	1	1688	2178	
5968	1	1689	2182	
5969	1	1688	2170	
5970	1	1688	2159	
5971	1	1688	2136	
5972	1	1688	2121	
5973	1	1688	2096	
5974	1	1688	2085	
5975	1	1688	2071	
5976	1	1688	2065	
5977	1	1688	2064	
5978	1	1688	2059	
5979	1	1688	2054	
5980	1	1688	2054	
5981	1	1687	2054	
5982	1	1688	2047	
5983	1	1687	2045	
5984	1	1687	2043	
5985	1	1687	2038	
5986	1	1687	2045	
5987	1	1687	2047	
5988	1	1687	2046	
5989	1	1687	2055	
5990	1	1687	2057	
5991	1	1687	2055	
5992	1	1687	2047	
5993	1	1687	2050	
5994	1	1686	2050	
5995	1	1686	2045	
5996	1	1686	2049	
5997	1	1686	2056	
5998	1	1686	2061	
5999	1	1686	2061	
6000	1	1686	2071	
6001	1	1686	2067	
6002	1	1686	2069	
6003	1	1686	2063	
6004	1	1686	2066	
6005	1	1686	2058	
6006	1	1686	2060	
6007	1	1686	2060	
6008	1	1686	2054	
6009	1	1686	2052	
6010	1	1686	2046	
6011	1	1686	2042	
6012	1	1686	2046	
6013	1	1686	2042	
6014	1	1686	2053	
6015	1	1686	2053	
6016	1	1685	2056	
6017	1	1686	2051	
6018	1	1686	2050	
6019	1	1686	2038	
6020	1	1686	2033	
6021	1	1686	2027	
6022	1	1686	2036	
6023	1	1686	2036	
6024	1	1686	2041	
6025	1	1686	2038	
6026	1	1685	2043	
6027	1	1685	2036	
6028	1	1685	2039	
6029	1	1685	2033	
6030	1	1685	2036	
6031	1	1685	2032	
6032	1	1685	2037	
6033	1	1685	2036	
6034	1	1685	2041	
6035	1	1685	2039	
6036	1	1685	2040	
6037	1	1685	2033	
6038	1	1685	2025	
6039	1	1685	2027	
6040	1	1685	2024	
6041	1	1685	2029	
6042	1	1685	2033	
6043	1	1685	2036	
6044	1	1685	2047	
6045	1	1685	2046	
6046	1	1685	2052	
6047	1	1685	2048	
6048	1	1685	2050	
6049	1	1685	2052	
6050	1	1685	2052	
6051	1	1684	2059	
6052	1	1685	2057	
6053	1	1685	2059	
6054	1	1685	2055	
6055	1	1685	2054	
6056	1	1684	2046	
6057	1	1685	2046	
6058	1	1684	2041	
6059	1	1685	2043	
6060	1	1685	2039	
6061	1	1685	2032	
6062	1	1685	2036	
6063	1	1685	2030	
6064	1	1684	2031	
6065	1	1685	2026	
6066	1	1684	2026	
6067	1	1684	2034	
6068	1	1684	2039	
6069	1	1684	2056	
6070	1	1684	2063	
6071	1	1685	2078	
6072	1	1684	2089	
6073	1	1684	2103	
6074	1	1684	2114	
6075	1	1684	2120	
6076	1	1684	2118	
6077	1	1684	2129	
6078	1	1685	2115	
6079	1	1684	2088	
6080	1	1685	2064	
6081	1	1685	2056	
6082	1	1685	2059	
6083	1	1685	2051	
6084	1	1685	2043	
6085	1	1685	2032	
6086	1	1685	2020	
6087	1	1685	2021	
6088	1	1685	2010	
6089	1	1685	2006	
6090	1	1685	1996	
6091	1	1685	1998	
6092	1	1685	1994	
6093	1	1685	2002	
6094	1	1685	2005	
6095	1	1685	2010	
6096	1	1685	2005	
6097	1	1685	2012	
6098	1	1685	2011	
6099	1	1685	2013	
6100	1	1685	2014	
6101	1	1685	2025	
6102	1	1684	2029	
6103	1	1685	2033	
6104	1	1685	2036	
6105	1	1685	2035	
6106	1	1684	2042	
6107	1	1685	2040	
6108	1	1684	2044	
6109	1	1684	2038	
6110	1	1684	2040	
6111	1	1685	2032	
6112	1	1685	2029	
6113	1	1684	2014	
6114	1	1685	2011	
6115	1	1684	2008	
6116	1	1684	2008	
6117	1	1685	2014	
6118	1	1684	2008	
6119	1	1685	2000	
6120	1	1684	2001	
6121	1	1684	2013	
6122	1	1684	2038	
6123	1	1684	2050	
6124	1	1684	2060	
6125	1	1684	2058	
6126	1	1684	2071	
6127	1	1684	2080	
6128	1	1684	2095	
6129	1	1684	2115	
6130	1	1684	2122	
6131	1	1684	2138	
6132	1	1684	2153	
6133	1	1684	2159	
6134	1	1684	2167	
6135	1	1684	2160	
6136	1	1684	2143	
6137	1	1684	2131	
6138	1	1684	2103	
6139	1	1684	2083	
6140	1	1684	2055	
6141	1	1684	2029	
6142	1	1684	2014	
6143	1	1684	1995	
6144	1	1684	1988	
6145	1	1684	1979	
6146	1	1684	1971	
6147	1	1684	1975	
6148	1	1684	1977	
6149	1	1684	1986	
6150	1	1684	1986	
6151	1	1684	1987	
6152	1	1684	1964	
6153	1	1683	1941	
6154	1	1684	1932	
6155	1	1684	1953	
6156	1	1683	1990	
6157	1	1683	2010	
6158	1	1683	2020	
6159	1	1683	2034	
6160	1	1683	2053	
6161	1	1683	2083	
6162	1	1683	2116	
6163	1	1683	2148	
6164	1	1683	2194	
6165	1	1683	2220	
6166	1	1683	2219	
6167	1	1683	2205	
6168	1	1683	2167	
6169	1	1683	2143	
6170	1	1683	2109	
6171	1	1683	2082	
6172	1	1683	2038	
6173	1	1683	1989	
6174	1	1683	1968	
6175	1	1683	1954	
6176	1	1683	1945	
6177	1	1683	1929	
6178	1	1683	1937	
6179	1	1683	1947	
6180	1	1683	1962	
6181	1	1683	1987	
6182	1	1682	2026	
6183	1	1683	2034	
6184	1	1683	2051	
6185	1	1682	2089	
6186	1	1682	2121	
6187	1	1683	2127	
6188	1	1682	2133	
6189	1	1682	2167	
6190	1	1682	2160	
6191	1	1682	2129	
6192	1	1682	2127	
6193	1	1682	2110	
6194	1	1682	2068	
6195	1	1682	2022	
6196	1	1683	1995	
6197	1	1683	1989	
6198	1	1683	1963	
6199	1	1683	1935	
6200	1	1683	1912	
6201	1	1683	1896	
6202	1	1683	1900	
6203	1	1683	1913	
6204	1	1684	1918	
6205	1	1684	1931	
6206	1	1684	1944	
6207	1	1684	1958	
6208	1	1684	1962	
6209	1	1684	1980	
6210	1	1684	2003	
6211	1	1684	2013	
6212	1	1685	2031	
6213	1	1685	2042	
6214	1	1685	2069	
6215	1	1685	2088	
6216	1	1685	2086	
6217	1	1685	2087	
6218	1	1685	2076	
6219	1	1686	2075	
6220	1	1686	2061	
6221	1	1686	2046	
6222	1	1686	2031	
6223	1	1686	2009	
6224	1	1686	1994	
6225	1	1687	1980	
6226	1	1687	1969	
6227	1	1686	1971	
6228	1	1686	1973	
6229	1	1687	1971	
6230	1	1687	1969	
6231	1	1687	1973	
6232	1	1687	1976	
6233	1	1687	1989	
6234	1	1687	1994	
6235	1	1688	2005	
6236	1	1688	2006	
6237	1	1688	2019	
6238	1	1688	2033	
6239	1	1688	2032	
6240	1	1688	2038	
6241	1	1688	2041	
6242	1	1688	2053	
6243	1	1688	2061	
6244	1	1688	2069	
6245	1	1688	2087	
6246	1	1688	2094	
6247	1	1688	2108	
6248	1	1688	2117	
6249	1	1689	2130	
6250	1	1689	2134	
6251	1	1688	2149	
6252	1	1688	2156	
6253	1	1689	2166	
6254	1	1689	2172	
6255	1	1689	2181	
6256	1	1689	2179	
6257	1	1689	2177	
6258	1	1689	2164	
6259	1	1690	2145	
6260	1	1689	2138	
6261	1	1689	2122	
6262	1	1689	2121	
6263	1	1689	2119	
6264	1	1689	2121	
6265	1	1690	2119	
6266	1	1689	2113	
6267	1	1689	2118	
6268	1	1690	2113	
6269	1	1690	2114	
6270	1	1689	2111	
6271	1	1690	2111	
6272	1	1689	2102	
6273	1	1689	2097	
6274	1	1689	2088	
6275	1	1689	2089	
6276	1	1690	2078	
6277	1	1689	2071	
6278	1	1690	2055	
6279	1	1689	2039	
6280	1	1690	2008	
6281	1	1690	1973	
6282	1	1690	1889	
6283	1	1691	1616	
6284	1	1692	1289	
6285	1	1692	1002	
6286	1	1693	800	
6287	1	1693	677	
6288	1	1692	606	
6289	1	1693	566	
6290	1	1693	563	
6291	1	1693	578	
6292	1	1693	606	
6293	1	1693	640	
6294	1	1693	668	
6295	1	1693	701	
6296	1	1693	748	
6297	1	1693	788	
6298	1	1693	834	
6299	1	1693	875	
6300	1	1693	918	
6301	1	1693	952	
6302	1	1693	979	
6303	1	1693	1012	
6304	1	1693	1038	
6305	1	1692	1072	
6306	1	1692	1107	
6307	1	1692	1136	
6308	1	1692	1170	
6309	1	1692	1206	
6310	1	1692	1239	
6311	1	1692	1271	
6312	1	1692	1308	
6313	1	1692	1343	
6314	1	1692	1379	
6315	1	1692	1414	
6316	1	1692	1449	
6317	1	1692	1486	
6318	1	1692	1525	
6319	1	1692	1557	
6320	1	1692	1595	
6321	1	1692	1632	
6322	1	1692	1670	
6323	1	1692	1705	
6324	1	1692	1737	
6325	1	1692	1774	
6326	1	1692	1805	
6327	1	1692	1845	
6328	1	1692	1879	
6329	1	1692	1922	
6330	1	1692	1963	
6331	1	1693	2005	
6332	1	1692	2041	
6333	1	1693	2083	
6334	1	1693	2113	
6335	1	1693	2148	
6336	1	1693	2169	
6337	1	1693	2178	
6338	1	1693	2184	
6339	1	1693	2175	
6340	1	1693	2165	
6341	1	1693	2138	
6342	1	1693	2102	
6343	1	1693	2074	
6344	1	1693	2031	
6345	1	1693	1981	
6346	1	1692	1935	
6347	1	1692	1906	
6348	1	1692	1883	
6349	1	1692	1868	
6350	1	1692	1869	
6351	1	1692	1878	
6352	1	1692	1884	
6353	1	1691	1901	
6354	1	1691	1915	
6355	1	1691	1927	
6356	1	1691	1944	
6357	1	1691	1966	
6358	1	1691	1979	
6359	1	1691	1995	
6360	1	1691	2016	
6361	1	1690	2038	
6362	1	1690	2053	
6363	1	1690	2072	
6364	1	1690	2078	
6365	1	1690	2092	
6366	1	1690	2097	
6367	1	1690	2106	
6368	1	1690	2107	
6369	1	1690	2103	
6370	1	1689	2096	
6371	1	1689	2085	
6372	1	1690	2084	
6373	1	1690	2090	
6374	1	1689	2132	
6375	1	1689	2177	
6376	1	1689	2237	
6377	1	1689	2286	
6378	1	1689	2342	
6379	1	1689	2383	
6380	1	1689	2422	
6381	1	1688	2449	
6382	1	1688	2484	
6383	1	1688	2508	
6384	1	1688	2532	
6385	1	1688	2552	
6386	1	1688	2560	
6387	1	1688	2578	
6388	1	1688	2594	
6389	1	1688	2605	
6390	1	1687	2617	
6391	1	1688	2622	
6392	1	1687	2612	
6393	1	1687	2613	
6394	1	1687	2611	
6395	1	1687	2609	
6396	1	1687	2619	
6397	1	1687	2626	
6398	1	1687	2630	
6399	1	1687	2633	
6400	1	1686	2637	
6401	1	1687	2640	
6402	1	1687	2637	
6403	1	1686	2624	
6404	1	1686	2600	
6405	1	1686	2588	
6406	1	1686	2575	
6407	1	1686	2564	
6408	1	1686	2544	
6409	1	1686	2516	
6410	1	1686	2512	
6411	1	1686	2506	
6412	1	1686	2507	
6413	1	1686	2487	
6414	1	1686	2480	
6415	1	1686	2472	
6416	1	1686	2478	
6417	1	1686	2478	
6418	1	1686	2478	
6419	1	1686	2486	
6420	1	1685	2490	
6421	1	1685	2490	
6422	1	1685	2478	
6423	1	1685	2464	
6424	1	1685	2459	
6425	1	1685	2441	
6426	1	1685	2444	
6427	1	1685	2457	
6428	1	1685	2472	
6429	1	1685	2477	
6430	1	1685	2469	
6431	1	1685	2452	
6432	1	1685	2453	
6433	1	1685	2454	
6434	1	1685	2454	
6435	1	1685	2455	
6436	1	1685	2449	
6437	1	1685	2460	
6438	1	1684	2470	
6439	1	1684	2485	
6440	1	1684	2484	
6441	1	1684	2492	
6442	1	1684	2494	
6443	1	1685	2493	
6444	1	1684	2490	
6445	1	1684	2474	
6446	1	1684	2467	
6447	1	1685	2455	
6448	1	1684	2437	
6449	1	1685	2428	
6450	1	1684	2415	
6451	1	1685	2406	
6452	1	1684	2399	
6453	1	1684	2390	
6454	1	1684	2377	
6455	1	1685	2358	
6456	1	1685	2342	
6457	1	1685	2325	
6458	1	1685	2322	
6459	1	1685	2316	
6460	1	1685	2310	
6461	1	1684	2302	
6462	1	1685	2295	
6463	1	1685	2299	
6464	1	1684	2298	
6465	1	1685	2295	
6466	1	1685	2284	
6467	1	1685	2292	
6468	1	1685	2308	
6469	1	1685	2303	
6470	1	1685	2305	
6471	1	1684	2307	
6472	1	1685	2305	
6473	1	1685	2302	
6474	1	1685	2289	
6475	1	1685	2295	
6476	1	1685	2295	
6477	1	1685	2302	
6478	1	1685	2302	
6479	1	1685	2300	
6480	1	1684	2309	
6481	1	1684	2319	
6482	1	1685	2341	
6483	1	1685	2347	
6484	1	1684	2355	
6485	1	1684	2368	
6486	1	1685	2358	
6487	1	1684	2352	
6488	1	1685	2340	
6489	1	1684	2342	
6490	1	1684	2327	
6491	1	1685	2301	
6492	1	1684	2297	
6493	1	1685	2288	
6494	1	1684	2291	
6495	1	1685	2280	
6496	1	1684	2279	
6497	1	1684	2279	
6498	1	1685	2279	
6499	1	1684	2276	
6500	1	1685	2269	
6501	1	1685	2262	
6502	1	1685	2242	
6503	1	1684	2237	
6504	1	1684	2232	
6505	1	1684	2234	
6506	1	1684	2223	
6507	1	1684	2225	
6508	1	1684	2217	
6509	1	1684	2222	
6510	1	1684	2220	
6511	1	1684	2227	
6512	1	1683	2226	
6513	1	1683	2228	
6514	1	1684	2228	
6515	1	1683	2236	
6516	1	1683	2232	
6517	1	1683	2233	
6518	1	1683	2232	
6519	1	1683	2230	
6520	1	1683	2240	
6521	1	1682	2239	
6522	1	1682	2242	
6523	1	1682	2228	
6524	1	1682	2221	
6525	1	1682	2216	
6526	1	1682	2238	
6527	1	1682	2252	
6528	1	1682	2243	
6529	1	1682	2217	
6530	1	1682	2198	
6531	1	1682	2211	
6532	1	1682	2228	
6533	1	1682	2231	
6534	1	1682	2204	
6535	1	1682	2195	
6536	1	1682	2182	
6537	1	1682	2183	
6538	1	1682	2173	
6539	1	1682	2176	
6540	1	1682	2165	
6541	1	1682	2160	
6542	1	1681	2155	
6543	1	1682	2156	
6544	1	1681	2165	
6545	1	1682	2171	
6546	1	1681	2167	
6547	1	1682	2138	
6548	1	1682	2118	
6549	1	1682	2110	
6550	1	1681	2096	
6551	1	1682	2083	
6552	1	1682	2084	
6553	1	1681	2113	
6554	1	1681	2125	
6555	1	1681	2143	
6556	1	1681	2183	
6557	1	1681	2205	
6558	1	1681	2218	
6559	1	1681	2210	
6560	1	1680	2200	
6561	1	1680	2186	
6562	1	1680	2157	
6563	1	1679	2136	
6564	1	1678	2123	
6565	1	1678	2111	
6566	1	1678	2106	
6567	1	1678	2090	
6568	1	1678	2084	
6569	1	1679	2078	
6570	1	1678	2070	
6571	1	1678	2071	
6572	1	1679	2070	
6573	1	1679	2080	
6574	1	1679	2081	
6575	1	1679	2087	
6576	1	1679	2081	
6577	1	1679	2069	
6578	1	1679	2039	
6579	1	1680	1981	
6580	1	1680	1885	
6581	1	1680	1792	
6582	1	1680	1722	
6583	1	1680	1670	
6584	1	1680	1643	
6585	1	1681	1625	
6586	1	1681	1613	
6587	1	1681	1603	
6588	1	1681	1596	
6589	1	1681	1597	
6590	1	1681	1599	
6591	1	1681	1605	
6592	1	1681	1616	
6593	1	1681	1633	
6594	1	1681	1643	
6595	1	1681	1659	
6596	1	1681	1680	
6597	1	1681	1701	
6598	1	1681	1726	
6599	1	1681	1754	
6600	1	1681	1746	
6601	1	1681	1729	
6602	1	1681	1714	
6603	1	1681	1697	
6604	1	1682	1689	
6605	1	1681	1691	
6606	1	1682	1701	
6607	1	1682	1725	
6608	1	1682	1739	
6609	1	1682	1755	
6610	1	1682	1775	
6611	1	1682	1811	
6612	1	1682	1846	
6613	1	1682	1875	
6614	1	1682	1917	
6615	1	1682	1967	
6616	1	1682	2000	
6617	1	1682	2016	
6618	1	1682	2030	
6619	1	1683	2024	
6620	1	1682	2008	
6621	1	1682	1994	
6622	1	1683	1976	
6623	1	1683	1966	
6624	1	1683	1961	
6625	1	1683	1945	
6626	1	1683	1935	
6627	1	1683	1917	
6628	1	1683	1893	
6629	1	1684	1887	
6630	1	1684	1884	
6631	1	1684	1892	
6632	1	1683	1902	
6633	1	1684	1935	
6634	1	1684	1971	
6635	1	1684	2014	
6636	1	1684	2055	
6637	1	1684	2089	
6638	1	1684	2122	
6639	1	1684	2147	
6640	1	1684	2172	
6641	1	1684	2181	
6642	1	1684	2196	
6643	1	1684	2205	
6644	1	1684	2207	
6645	1	1684	2215	
6646	1	1684	2222	
6647	1	1684	2221	
6648	1	1684	2229	
6649	1	1685	2229	
6650	1	1685	2236	
6651	1	1684	2234	
6652	1	1684	2243	
6653	1	1684	2241	
6654	1	1685	2249	
6655	1	1685	2255	
6656	1	1685	2261	
6657	1	1684	2271	
6658	1	1684	2279	
6659	1	1684	2281	
6660	1	1684	2291	
6661	1	1685	2287	
6662	1	1685	2291	
6663	1	1685	2296	
6664	1	1684	2288	
6665	1	1684	2288	
6666	1	1684	2280	
6667	1	1685	2276	
6668	1	1685	2267	
6669	1	1684	2258	
6670	1	1685	2248	
6671	1	1685	2232	
6672	1	1684	2226	
6673	1	1685	2217	
6674	1	1685	2212	
6675	1	1685	2213	
6676	1	1684	2206	
6677	1	1684	2207	
6678	1	1685	2204	
6679	1	1685	2207	
6680	1	1684	2207	
6681	1	1684	2191	
6682	1	1684	2180	
6683	1	1684	2178	
6684	1	1684	2176	
6685	1	1684	2184	
6686	1	1684	2180	
6687	1	1684	2169	
6688	1	1684	2169	
6689	1	1684	2159	
6690	1	1684	2125	
6691	1	1684	2046	
6692	1	1684	1945	
6693	1	1684	1855	
6694	1	1684	1785	
6695	1	1684	1748	
6696	1	1684	1732	
6697	1	1684	1739	
6698	1	1684	1741	
6699	1	1684	1721	
6700	1	1684	1700	
6701	1	1684	1683	
6702	1	1684	1677	
6703	1	1683	1687	
